SpectraSuite Datei
++++++++++++++++++++++++++++++++++++
Datum: Fri Dec 16 12:17:15 CET 2022
Benutzer: spektr
Dark-Spektrum vorhanden: Nein
Referenz-Spektrum vorhanden: Nein
Zahl der probierten Teilspektren: 1
Spektrometer: USB4F00406
Integrationszeit (usec): 100000 (USB4F00406)
Spektren Durchschnitt berechnet: 1 (USB4F00406)
Boxcar Glättung: 0 (USB4F00406)
Dunkelstromkorrektur: Nein (USB4F00406)
Puls/Lampe aktiviert: Nein (USB4F00406)
Correct for Detector Non-linearity: Nein (USB4F00406)
Streulichtkorrektur: Nein (USB4F00406)
Anzahl Pixel in verarbeitetem Spektrum: 3648
>>>>>Begin Processed Spectral Data<<<<<
345,69	950,26
345,91	950,26
346,12	950,26
346,34	993,26
346,55	921,59
346,77	1071,09
346,98	1107,95
347,20	1069,04
347,41	1114,10
347,63	1140,72
347,84	1091,57
348,06	1216,49
348,27	1177,58
348,49	1079,28
348,70	1126,38
348,92	1093,62
349,13	1191,92
349,35	1062,90
349,56	1114,10
349,78	1091,57
349,99	1159,15
350,20	1097,71
350,42	1101,81
350,63	1150,96
350,85	1097,71
351,06	1157,10
351,28	1128,43
351,49	1101,81
351,71	1138,67
351,92	1081,33
352,14	1206,25
352,35	1066,99
352,57	1114,10
352,78	1150,96
353,00	1118,19
353,21	1146,86
353,43	1226,73
353,64	1089,52
353,85	1060,85
354,07	1064,94
354,28	1130,48
354,50	1144,81
354,71	1044,46
354,93	1112,05
355,14	1050,61
355,36	1105,90
355,57	1089,52
355,79	1136,62
356,00	1138,67
356,21	1114,10
356,43	1048,56
356,64	1044,46
356,86	1140,72
357,07	1097,71
357,29	1081,33
357,50	1153,01
357,72	1220,59
357,93	1089,52
358,14	1165,29
358,36	1144,81
358,57	1107,95
358,79	1136,62
359,00	1220,59
359,22	1163,25
359,43	1093,62
359,65	1142,77
359,86	1146,86
360,07	1161,20
360,29	1130,48
360,50	1114,10
360,72	1173,49
360,93	1159,15
361,14	1146,86
361,36	1316,84
361,57	1417,19
361,79	1685,48
362,00	1937,38
362,22	1912,80
362,43	1908,71
362,64	1722,34
362,86	1576,94
363,07	1417,19
363,29	1232,88
363,50	1187,82
363,72	1222,64
363,93	1165,29
364,14	1118,19
364,36	1206,25
364,57	1140,72
364,79	1206,25
365,00	1255,40
365,21	1316,84
365,43	1673,19
365,64	2338,78
365,86	2709,46
366,07	3018,71
366,28	3250,13
366,50	3160,02
366,71	2777,05
366,93	2451,42
367,14	2179,04
367,35	1849,32
367,57	1673,19
367,78	1509,35
367,99	1376,24
368,21	1333,23
368,42	1216,49
368,64	1255,40
368,85	1124,33
369,06	1089,52
369,28	1079,28
369,49	1157,10
369,71	1097,71
369,92	1126,38
370,13	1134,57
370,35	1167,34
370,56	1097,71
370,77	1103,86
370,99	1120,24
371,20	1124,33
371,42	1097,71
371,63	1095,66
371,84	1099,76
372,06	1165,29
372,27	1132,53
372,48	1093,62
372,70	1054,70
372,91	1161,20
373,12	1116,14
373,34	1103,86
373,55	1183,73
373,77	1071,09
373,98	1085,42
374,19	1153,01
374,41	1134,57
374,62	1159,15
374,83	1056,75
375,05	1112,05
375,26	1073,14
375,47	1202,16
375,69	1110,00
375,90	1101,81
376,11	1175,53
376,33	1185,77
376,54	1138,67
376,75	1136,62
376,97	1101,81
377,18	1138,67
377,40	1099,76
377,61	1105,90
377,82	1105,90
378,04	1120,24
378,25	1118,19
378,46	1081,33
378,68	1142,77
378,89	1179,63
379,10	1138,67
379,32	1107,95
379,53	1130,48
379,74	1169,39
379,96	1146,86
380,17	1118,19
380,38	1091,57
380,59	1132,53
380,81	1179,63
381,02	1066,99
381,23	1134,57
381,45	1177,58
381,66	1081,33
381,87	1075,18
382,09	1087,47
382,30	1138,67
382,51	1114,10
382,73	1124,33
382,94	1036,27
383,15	1120,24
383,37	1095,66
383,58	1054,70
383,79	1116,14
384,00	1116,14
384,22	1079,28
384,43	1079,28
384,64	1148,91
384,86	1118,19
385,07	1103,86
385,28	1110,00
385,50	1189,87
385,71	1044,46
385,92	1155,05
386,13	1163,25
386,35	1110,00
386,56	1118,19
386,77	1140,72
386,99	1044,46
387,20	1130,48
387,41	1138,67
387,63	1171,44
387,84	1095,66
388,05	1077,23
388,26	1136,62
388,48	1155,05
388,69	1163,25
388,90	1110,00
389,11	1007,60
389,33	1116,14
389,54	1071,09
389,75	1114,10
389,97	1097,71
390,18	1107,95
390,39	1103,86
390,60	1087,47
390,82	1130,48
391,03	1122,29
391,24	1056,75
391,45	1153,01
391,67	1136,62
391,88	1155,05
392,09	1150,96
392,31	1089,52
392,52	1175,53
392,73	1132,53
392,94	1120,24
393,16	1116,14
393,37	1132,53
393,58	1126,38
393,79	1130,48
394,01	1095,66
394,22	1118,19
394,43	1155,05
394,64	1155,05
394,86	1140,72
395,07	1155,05
395,28	1191,92
395,49	1173,49
395,71	1081,33
395,92	1083,38
396,13	1155,05
396,34	1101,81
396,56	1150,96
396,77	1146,86
396,98	1169,39
397,19	1183,73
397,40	1169,39
397,62	1161,20
397,83	1128,43
398,04	1064,94
398,25	1150,96
398,47	1179,63
398,68	1155,05
398,89	1073,14
399,10	1140,72
399,32	1253,36
399,53	1112,05
399,74	1183,73
399,95	1103,86
400,16	1105,90
400,38	1167,34
400,59	1193,97
400,80	1163,25
401,01	1132,53
401,22	1165,29
401,44	1140,72
401,65	1132,53
401,86	1150,96
402,07	1163,25
402,29	1138,67
402,50	1187,82
402,71	1142,77
402,92	1206,25
403,13	1193,97
403,35	1056,75
403,56	1169,39
403,77	1132,53
403,98	1150,96
404,19	1251,31
404,41	1249,26
404,62	1316,84
404,83	1566,70
405,04	2015,20
405,25	3016,66
405,47	3993,54
405,68	4495,29
405,89	4573,11
406,10	4304,83
406,31	3426,25
406,52	2486,23
406,74	1880,04
406,95	1441,77
407,16	1286,12
407,37	1153,01
407,58	1148,91
407,80	1107,95
408,01	1179,63
408,22	1269,74
408,43	1331,18
408,64	1349,61
408,85	1386,47
409,07	1341,42
409,28	1347,56
409,49	1322,99
409,70	1265,64
409,91	1175,53
410,12	1187,82
410,34	1116,14
410,55	1157,10
410,76	1140,72
410,97	1167,34
411,18	1171,44
411,39	1120,24
411,61	1159,15
411,82	1163,25
412,03	1118,19
412,24	1091,57
412,45	1228,78
412,66	1140,72
412,87	1148,91
413,09	1144,81
413,30	1179,63
413,51	1150,96
413,72	1138,67
413,93	1073,14
414,14	1060,85
414,35	1066,99
414,57	1138,67
414,78	1148,91
414,99	1062,90
415,20	1148,91
415,41	1171,44
415,62	1116,14
415,83	1155,05
416,05	1116,14
416,26	1155,05
416,47	1167,34
416,68	1116,14
416,89	1107,95
417,10	1236,97
417,31	1146,86
417,52	1060,85
417,74	1069,04
417,95	1179,63
418,16	1159,15
418,37	1110,00
418,58	1167,34
418,79	1130,48
419,00	1122,29
419,21	1140,72
419,43	1132,53
419,64	1157,10
419,85	1155,05
420,06	1107,95
420,27	1163,25
420,48	1144,81
420,69	1187,82
420,90	1142,77
421,11	1110,00
421,33	1110,00
421,54	1155,05
421,75	1148,91
421,96	1179,63
422,17	1187,82
422,38	1134,57
422,59	1083,38
422,80	1157,10
423,01	1107,95
423,22	1187,82
423,43	1116,14
423,65	1085,42
423,86	1189,87
424,07	1087,47
424,28	1159,15
424,49	1159,15
424,70	1146,86
424,91	1122,29
425,12	1124,33
425,33	1300,46
425,54	1150,96
425,75	1193,97
425,96	1087,47
426,18	1105,90
426,39	1138,67
426,60	1173,49
426,81	1122,29
427,02	1175,53
427,23	1146,86
427,44	1200,11
427,65	1128,43
427,86	1110,00
428,07	1169,39
428,28	1161,20
428,49	1179,63
428,70	1130,48
428,91	1134,57
429,13	1128,43
429,34	1144,81
429,55	1204,21
429,76	1159,15
429,97	1175,53
430,18	1142,77
430,39	1118,19
430,60	1122,29
430,81	1114,10
431,02	1275,88
431,23	1189,87
431,44	1181,68
431,65	1171,44
431,86	1099,76
432,07	1282,03
432,28	1183,73
432,49	1198,06
432,70	1171,44
432,91	1157,10
433,12	1155,05
433,33	1191,92
433,55	1140,72
433,76	1245,16
433,97	1191,92
434,18	1243,12
434,39	1189,87
434,60	1222,64
434,81	1331,18
435,02	1308,65
435,23	1333,23
435,44	1449,96
435,65	1617,90
435,86	2015,20
436,07	2873,30
436,28	4308,93
436,49	6969,24
436,70	8943,48
436,91	10223,46
437,12	10522,46
437,33	10213,22
437,54	7956,36
437,75	5126,07
437,96	3467,21
438,17	2152,42
438,38	1578,98
438,59	1417,19
438,80	1241,07
439,01	1234,93
439,22	1202,16
439,43	1275,88
439,64	1132,53
439,85	1181,68
440,06	1126,38
440,27	1228,78
440,48	1134,57
440,69	1198,06
440,90	1196,01
441,11	1155,05
441,32	1220,59
441,53	1282,03
441,74	1189,87
441,95	1222,64
442,16	1138,67
442,37	1183,73
442,58	1265,64
442,79	1183,73
443,00	1232,88
443,21	1148,91
443,42	1245,16
443,63	1144,81
443,84	1142,77
444,05	1208,30
444,26	1130,48
444,47	1177,58
444,68	1230,83
444,89	1105,90
445,10	1187,82
445,31	1140,72
445,52	1128,43
445,73	1173,49
445,94	1140,72
446,14	1187,82
446,35	1146,86
446,56	1191,92
446,77	1105,90
446,98	1218,54
447,19	1107,95
447,40	1171,44
447,61	1150,96
447,82	1128,43
448,03	1230,83
448,24	1187,82
448,45	1175,53
448,66	1146,86
448,87	1132,53
449,08	1142,77
449,29	1153,01
449,50	1196,01
449,71	1181,68
449,92	1091,57
450,13	1191,92
450,33	1126,38
450,54	1230,83
450,75	1132,53
450,96	1212,40
451,17	1093,62
451,38	1132,53
451,59	1130,48
451,80	1110,00
452,01	1175,53
452,22	1196,01
452,43	1118,19
452,64	1142,77
452,85	1118,19
453,06	1161,20
453,27	1196,01
453,47	1140,72
453,68	1187,82
453,89	1157,10
454,10	1132,53
454,31	1112,05
454,52	1155,05
454,73	1099,76
454,94	1153,01
455,15	1148,91
455,36	1118,19
455,57	1110,00
455,78	1376,24
455,98	1130,48
456,19	1146,86
456,40	1239,02
456,61	1216,49
456,82	1148,91
457,03	1062,90
457,24	1105,90
457,45	1232,88
457,66	1148,91
457,87	1134,57
458,07	1181,68
458,28	1110,00
458,49	1140,72
458,70	1134,57
458,91	1136,62
459,12	1200,11
459,33	1187,82
459,54	1173,49
459,75	1122,29
459,95	1118,19
460,16	1173,49
460,37	1200,11
460,58	1118,19
460,79	1183,73
461,00	1187,82
461,21	1159,15
461,42	1114,10
461,62	1107,95
461,83	1210,35
462,04	1159,15
462,25	1183,73
462,46	1165,29
462,67	1114,10
462,88	1255,40
463,09	1134,57
463,29	1177,58
463,50	1136,62
463,71	1116,14
463,92	1228,78
464,13	1183,73
464,34	1099,76
464,55	1175,53
464,75	1183,73
464,96	1228,78
465,17	1130,48
465,38	1171,44
465,59	1146,86
465,80	1124,33
466,01	1167,34
466,21	1140,72
466,42	1411,05
466,63	1153,01
466,84	1171,44
467,05	1257,45
467,26	1212,40
467,46	1220,59
467,67	1232,88
467,88	1355,76
468,09	1447,91
468,30	1671,14
468,51	1896,42
468,71	2068,45
468,92	2445,27
469,13	2654,17
469,34	2940,88
469,55	2793,43
469,76	2361,31
469,96	1998,82
470,17	1877,99
470,38	1443,82
470,59	1175,53
470,80	1163,25
471,01	1181,68
471,21	1169,39
471,42	1247,21
471,63	1144,81
471,84	1165,29
472,05	1175,53
472,25	1146,86
472,46	1132,53
472,67	1253,36
472,88	1189,87
473,09	1204,21
473,29	1279,98
473,50	1243,12
473,71	1105,90
473,92	1236,97
474,13	1167,34
474,34	1202,16
474,54	1157,10
474,75	1175,53
474,96	1189,87
475,17	1214,45
475,37	1126,38
475,58	1173,49
475,79	1159,15
476,00	1261,55
476,21	1198,06
476,41	1189,87
476,62	1114,10
476,83	1161,20
477,04	1167,34
477,25	1191,92
477,45	1175,53
477,66	1173,49
477,87	1181,68
478,08	1163,25
478,28	1234,93
478,49	1234,93
478,70	1212,40
478,91	1310,70
479,12	1159,15
479,32	1214,45
479,53	1226,73
479,74	1327,08
479,95	1603,56
480,15	1839,08
480,36	2504,67
480,57	3459,02
480,78	4341,69
480,98	5369,77
481,19	5844,90
481,40	6553,50
481,61	7280,53
481,81	6526,88
482,02	5588,91
482,23	5132,21
482,44	3966,92
482,64	2736,09
482,85	1945,57
483,06	1621,99
483,27	1388,52
483,47	1351,66
483,68	1261,55
483,89	1343,47
484,10	1273,84
484,30	1300,46
484,51	1251,31
484,72	1325,04
484,93	1232,88
485,13	1306,60
485,34	1181,68
485,55	1253,36
485,76	1234,93
485,96	1236,97
486,17	1325,04
486,38	1312,75
486,59	1275,88
486,79	1284,08
487,00	1277,93
487,21	1349,61
487,41	1335,28
487,62	1345,52
487,83	1251,31
488,04	1279,98
488,24	1263,60
488,45	1335,28
488,66	1306,60
488,86	1306,60
489,07	1308,65
489,28	1212,40
489,49	1234,93
489,69	1282,03
489,90	1277,93
490,11	1288,17
490,31	1232,88
490,52	1216,49
490,73	1236,97
490,93	1310,70
491,14	1284,08
491,35	1282,03
491,56	1253,36
491,76	1390,57
491,97	1335,28
492,18	1284,08
492,38	1368,04
492,59	1286,12
492,80	1413,10
493,00	1474,54
493,21	1435,63
493,42	1409,00
493,62	1404,91
493,83	1337,32
494,04	1347,56
494,25	1245,16
494,45	1306,60
494,66	1294,32
494,87	1255,40
495,07	1269,74
495,28	1236,97
495,49	1253,36
495,69	1226,73
495,90	1261,55
496,11	1316,84
496,31	1279,98
496,52	1169,39
496,73	1292,27
496,93	1316,84
497,14	1263,60
497,35	1267,69
497,55	1261,55
497,76	1259,50
497,97	1349,61
498,17	1288,17
498,38	1277,93
498,59	1224,69
498,79	1290,22
499,00	1255,40
499,20	1226,73
499,41	1222,64
499,62	1275,88
499,82	1187,82
500,03	1128,43
500,24	1204,21
500,44	1294,32
500,65	1255,40
500,86	1298,41
501,06	1239,02
501,27	1198,06
501,48	1148,91
501,68	1314,80
501,89	1179,63
502,09	1159,15
502,30	1220,59
502,51	1261,55
502,71	1138,67
502,92	1210,35
503,13	1200,11
503,33	1241,07
503,54	1222,64
503,74	1216,49
503,95	1490,92
504,16	1267,69
504,36	1241,07
504,57	1292,27
504,78	1263,60
504,98	1198,06
505,19	1265,64
505,39	1130,48
505,60	1257,45
505,81	1230,83
506,01	1206,25
506,22	1220,59
506,42	1222,64
506,63	1179,63
506,84	1214,45
507,04	1204,21
507,25	1271,79
507,45	1259,50
507,66	1212,40
507,87	1263,60
508,07	1359,85
508,28	1546,22
508,48	2220,00
508,69	2772,95
508,90	4014,02
509,10	5304,24
509,31	6729,63
509,51	8560,51
509,72	10071,91
509,93	11710,29
510,13	12924,73
510,34	12191,56
510,54	10751,84
510,75	9525,10
510,95	7550,86
511,16	5398,45
511,37	3493,83
511,57	2566,10
511,78	1880,04
511,98	1658,85
512,19	1581,03
512,39	1392,62
512,60	1372,14
512,81	1327,08
513,01	1257,45
513,22	1349,61
513,42	1292,27
513,63	1282,03
513,83	1335,28
514,04	1284,08
514,25	1193,97
514,45	1304,56
514,66	1228,78
514,86	1214,45
515,07	1267,69
515,27	1214,45
515,48	1302,51
515,68	1241,07
515,89	1181,68
516,09	1175,53
516,30	1253,36
516,51	1224,69
516,71	1306,60
516,92	1230,83
517,12	1138,67
517,33	1267,69
517,53	1228,78
517,74	1236,97
517,94	1224,69
518,15	1337,32
518,35	1165,29
518,56	1253,36
518,76	1196,01
518,97	1302,51
519,18	1200,11
519,38	1189,87
519,59	1134,57
519,79	1179,63
520,00	1216,49
520,20	1196,01
520,41	1161,20
520,61	1148,91
520,82	1157,10
521,02	1148,91
521,23	1228,78
521,43	1224,69
521,64	1234,93
521,84	1189,87
522,05	1177,58
522,25	1161,20
522,46	1150,96
522,66	1165,29
522,87	1171,44
523,07	1294,32
523,28	1089,52
523,48	1146,86
523,69	1255,40
523,89	1159,15
524,10	1202,16
524,30	1163,25
524,51	1196,01
524,71	1126,38
524,92	1234,93
525,12	1191,92
525,33	1310,70
525,53	1126,38
525,74	1114,10
525,94	1210,35
526,15	1226,73
526,35	1261,55
526,56	1243,12
526,76	1179,63
526,97	1179,63
527,17	1257,45
527,38	1142,77
527,58	1267,69
527,78	1185,77
527,99	1226,73
528,19	1212,40
528,40	1245,16
528,60	1290,22
528,81	1216,49
529,01	1132,53
529,22	1214,45
529,42	1171,44
529,63	1255,40
529,83	1167,34
530,04	1228,78
530,24	1206,25
530,44	1189,87
530,65	1183,73
530,85	1189,87
531,06	1193,97
531,26	1196,01
531,47	1163,25
531,67	1187,82
531,88	1224,69
532,08	1243,12
532,29	1206,25
532,49	1183,73
532,69	1214,45
532,90	1204,21
533,10	1253,36
533,31	1236,97
533,51	1230,83
533,72	1167,34
533,92	1236,97
534,12	1130,48
534,33	1175,53
534,53	1234,93
534,74	1169,39
534,94	1198,06
535,15	1302,51
535,35	1288,17
535,55	1267,69
535,76	1284,08
535,96	1253,36
536,17	1263,60
536,37	1251,31
536,58	1302,51
536,78	1314,80
536,98	1339,37
537,19	1259,50
537,39	1288,17
537,60	1304,56
537,80	1349,61
538,00	1204,21
538,21	1251,31
538,41	1327,08
538,62	1298,41
538,82	1265,64
539,02	1370,09
539,23	1406,95
539,43	1255,40
539,64	1372,14
539,84	1374,19
540,04	1413,10
540,25	1413,10
540,45	1425,39
540,66	1415,15
540,86	1355,76
541,06	1374,19
541,27	1449,96
541,47	1402,86
541,68	1501,16
541,88	1466,35
542,08	1542,12
542,29	1609,70
542,49	1734,63
542,69	1742,82
542,90	1720,29
543,10	1767,40
543,31	1949,67
543,51	1849,32
543,71	1910,75
543,92	1875,94
544,12	1912,80
544,32	1853,41
544,53	1964,00
544,73	1974,24
544,93	1949,67
545,14	2033,63
545,34	2156,51
545,55	2457,56
545,75	4136,90
545,95	6496,16
546,16	10456,93
546,36	14755,61
546,56	18708,19
546,77	24780,42
546,97	30996,01
547,17	38100,41
547,38	44320,09
547,58	49001,75
547,78	48327,97
547,99	45182,29
548,19	38059,45
548,39	28159,57
548,60	18106,09
548,80	10710,88
549,00	6772,63
549,21	4468,67
549,41	3327,95
549,61	2557,91
549,82	2326,49
550,02	2148,32
550,22	2101,22
550,43	1916,90
550,63	1822,69
550,83	1808,36
551,04	1665,00
551,24	1595,37
551,44	1617,90
551,65	1658,85
551,85	1591,27
552,05	1615,85
552,26	1445,87
552,46	1490,92
552,66	1550,31
552,87	1482,73
553,07	1454,06
553,27	1626,09
553,47	1437,67
553,68	1478,63
553,88	1325,04
554,08	1392,62
554,29	1431,53
554,49	1370,09
554,69	1406,95
554,90	1394,67
555,10	1296,36
555,30	1347,56
555,50	1296,36
555,71	1294,32
555,91	1236,97
556,11	1296,36
556,32	1288,17
556,52	1312,75
556,72	1269,74
556,92	1300,46
557,13	1261,55
557,33	1273,84
557,53	1255,40
557,74	1288,17
557,94	1286,12
558,14	1241,07
558,34	1327,08
558,55	1230,83
558,75	1249,26
558,95	1187,82
559,16	1183,73
559,36	1257,45
559,56	1320,94
559,76	1161,20
559,97	1179,63
560,17	1273,84
560,37	1294,32
560,57	1208,30
560,78	1232,88
560,98	1243,12
561,18	1200,11
561,38	1273,84
561,59	1191,92
561,79	1183,73
561,99	1216,49
562,19	1177,58
562,40	1196,01
562,60	1165,29
562,80	1267,69
563,00	1265,64
563,21	1265,64
563,41	1265,64
563,61	1220,59
563,81	1220,59
564,02	1161,20
564,22	1187,82
564,42	1236,97
564,62	1214,45
564,83	1122,29
565,03	1210,35
565,23	1167,34
565,43	1249,26
565,63	1132,53
565,84	1253,36
566,04	1257,45
566,24	1187,82
566,44	1130,48
566,65	1208,30
566,85	1103,86
567,05	1306,60
567,25	1161,20
567,45	1196,01
567,66	1105,90
567,86	1230,83
568,06	1179,63
568,26	1247,21
568,46	1193,97
568,67	1177,58
568,87	1257,45
569,07	1187,82
569,27	1255,40
569,47	1265,64
569,68	1236,97
569,88	1261,55
570,08	1150,96
570,28	1110,00
570,48	1107,95
570,69	1171,44
570,89	1210,35
571,09	1116,14
571,29	1214,45
571,49	1167,34
571,70	1216,49
571,90	1271,79
572,10	1279,98
572,30	1247,21
572,50	1210,35
572,71	1208,30
572,91	1222,64
573,11	1220,59
573,31	1193,97
573,51	1177,58
573,71	1335,28
573,92	1224,69
574,12	1187,82
574,32	1265,64
574,52	1181,68
574,72	1263,60
574,92	1165,29
575,13	1271,79
575,33	1230,83
575,53	1198,06
575,73	1206,25
575,93	1232,88
576,13	1337,32
576,33	1320,94
576,54	1724,39
576,74	2115,55
576,94	2762,71
577,14	3493,83
577,34	4351,93
577,54	4972,47
577,75	6039,46
577,95	7350,16
578,15	8619,90
578,35	9912,17
578,55	10366,82
578,75	10717,02
578,95	10717,02
579,16	9881,45
579,36	8642,43
579,56	7468,94
579,76	7079,83
579,96	7462,80
580,16	8421,25
580,36	9404,27
580,56	9672,56
580,77	9582,45
580,97	9471,86
581,17	8587,13
581,37	6670,23
581,57	4644,79
581,77	3360,72
581,97	2480,09
582,17	1863,65
582,38	1812,45
582,58	1560,55
582,78	1503,21
582,98	1495,02
583,18	1425,39
583,38	1474,54
583,58	1363,95
583,78	1429,48
583,98	1507,30
584,18	1294,32
584,39	1343,47
584,59	1372,14
584,79	1331,18
584,99	1275,88
585,19	1370,09
585,39	1314,80
585,59	1355,76
585,79	1318,89
585,99	1345,52
586,19	1290,22
586,39	1290,22
586,60	1294,32
586,80	1286,12
587,00	1241,07
587,20	1327,08
587,40	1265,64
587,60	1329,13
587,80	1292,27
588,00	1372,14
588,20	1277,93
588,40	1325,04
588,60	1318,89
588,80	1226,73
589,00	1310,70
589,21	1259,50
589,41	1312,75
589,61	1255,40
589,81	1253,36
590,01	1261,55
590,21	1206,25
590,41	1243,12
590,61	1282,03
590,81	1255,40
591,01	1183,73
591,21	1261,55
591,41	1169,39
591,61	1239,02
591,81	1169,39
592,01	1193,97
592,21	1279,98
592,41	1212,40
592,61	1245,16
592,82	1200,11
593,02	1206,25
593,22	1286,12
593,42	1191,92
593,62	1157,10
593,82	1212,40
594,02	1300,46
594,22	1230,83
594,42	1181,68
594,62	1206,25
594,82	1187,82
595,02	1150,96
595,22	1204,21
595,42	1208,30
595,62	1136,62
595,82	1200,11
596,02	1212,40
596,22	1103,86
596,42	1095,66
596,62	1134,57
596,82	1226,73
597,02	1144,81
597,22	1189,87
597,42	1140,72
597,62	1165,29
597,82	1241,07
598,02	1259,50
598,22	1204,21
598,42	1189,87
598,62	1097,71
598,82	1110,00
599,02	1126,38
599,22	1187,82
599,42	1204,21
599,62	1132,53
599,82	1136,62
600,02	1140,72
600,22	1263,60
600,42	1228,78
600,62	1249,26
600,82	1122,29
601,02	1144,81
601,22	1163,25
601,42	1136,62
601,62	1122,29
601,82	1153,01
602,02	1118,19
602,22	1101,81
602,42	1146,86
602,62	1128,43
602,82	1093,62
603,02	1083,38
603,22	1247,21
603,42	1169,39
603,62	1112,05
603,82	1200,11
604,02	1175,53
604,22	1124,33
604,42	1175,53
604,62	1150,96
604,82	1081,33
605,02	1153,01
605,21	1146,86
605,41	1150,96
605,61	1173,49
605,81	1140,72
606,01	1245,16
606,21	1189,87
606,41	1171,44
606,61	1247,21
606,81	1157,10
607,01	1165,29
607,21	1177,58
607,41	1161,20
607,61	1116,14
607,81	1138,67
608,01	1138,67
608,21	1101,81
608,41	1163,25
608,61	1159,15
608,80	1210,35
609,00	1206,25
609,20	1220,59
609,40	1226,73
609,60	1196,01
609,80	1224,69
610,00	1181,68
610,20	1241,07
610,40	1245,16
610,60	1273,84
610,80	1236,97
611,00	1417,19
611,20	1564,65
611,39	1628,14
611,59	1755,11
611,79	1902,56
611,99	1818,60
612,19	1894,37
612,39	1789,92
612,59	1775,59
612,79	1703,91
612,99	1531,88
613,19	1566,70
613,38	1564,65
613,58	1447,91
613,78	1402,86
613,98	1427,43
614,18	1388,52
614,38	1302,51
614,58	1347,56
614,78	1361,90
614,98	1331,18
615,18	1441,77
615,37	1339,37
615,57	1349,61
615,77	1183,73
615,97	1279,98
616,17	1146,86
616,37	1265,64
616,57	1288,17
616,77	1253,36
616,96	1212,40
617,16	1269,74
617,36	1187,82
617,56	1222,64
617,76	1253,36
617,96	1212,40
618,16	1198,06
618,35	1208,30
618,55	1171,44
618,75	1165,29
618,95	1183,73
619,15	1282,03
619,35	1183,73
619,55	1212,40
619,75	1140,72
619,94	1200,11
620,14	1148,91
620,34	1245,16
620,54	1153,01
620,74	1175,53
620,94	1189,87
621,13	1183,73
621,33	1200,11
621,53	1247,21
621,73	1173,49
621,93	1226,73
622,13	1140,72
622,32	1198,06
622,52	1255,40
622,72	1222,64
622,92	1212,40
623,12	1169,39
623,32	1253,36
623,51	1236,97
623,71	1234,93
623,91	1232,88
624,11	1187,82
624,31	1220,59
624,51	1187,82
624,70	1241,07
624,90	1232,88
625,10	1189,87
625,30	1243,12
625,50	1148,91
625,69	1179,63
625,89	1163,25
626,09	1169,39
626,29	1193,97
626,49	1290,22
626,68	1165,29
626,88	1210,35
627,08	1171,44
627,28	1157,10
627,48	1095,66
627,67	1202,16
627,87	1134,57
628,07	1284,08
628,27	1226,73
628,47	1165,29
628,66	1206,25
628,86	1150,96
629,06	1105,90
629,26	1110,00
629,46	1189,87
629,65	1218,54
629,85	1134,57
630,05	1157,10
630,25	1236,97
630,45	1187,82
630,64	1142,77
630,84	1181,68
631,04	1204,21
631,24	1189,87
631,43	1204,21
631,63	1226,73
631,83	1196,01
632,03	1255,40
632,22	1243,12
632,42	1206,25
632,62	1206,25
632,82	1173,49
633,01	1187,82
633,21	1159,15
633,41	1179,63
633,61	1126,38
633,81	1212,40
634,00	1126,38
634,20	1110,00
634,40	1150,96
634,60	1120,24
634,79	1124,33
634,99	1110,00
635,19	1181,68
635,38	1155,05
635,58	1081,33
635,78	1058,80
635,98	1112,05
636,17	1179,63
636,37	1159,15
636,57	1095,66
636,77	1153,01
636,96	1153,01
637,16	1140,72
637,36	1110,00
637,56	1163,25
637,75	1140,72
637,95	1116,14
638,15	1155,05
638,34	1101,81
638,54	1157,10
638,74	1116,14
638,94	1155,05
639,13	1091,57
639,33	1118,19
639,53	1118,19
639,72	1165,29
639,92	1060,85
640,12	1210,35
640,32	1107,95
640,51	1136,62
640,71	1138,67
640,91	1112,05
641,10	1134,57
641,30	1114,10
641,50	1093,62
641,69	1165,29
641,89	1110,00
642,09	1179,63
642,29	1073,14
642,48	1148,91
642,68	1171,44
642,88	1196,01
643,07	1155,05
643,27	1241,07
643,47	1296,36
643,66	1441,77
643,86	1585,13
644,06	1662,95
644,25	1802,21
644,45	1994,72
644,65	2125,79
644,84	2330,59
645,04	2527,19
645,24	2617,30
645,43	2707,41
645,63	2715,61
645,83	2826,20
646,02	2551,77
646,22	2263,01
646,42	1957,86
646,61	1621,99
646,81	1400,81
647,01	1273,84
647,20	1296,36
647,40	1167,34
647,60	1153,01
647,79	1157,10
647,99	1165,29
648,19	1116,14
648,38	1110,00
648,58	1232,88
648,78	1130,48
648,97	1191,92
649,17	1173,49
649,36	1183,73
649,56	1132,53
649,76	1081,33
649,95	1159,15
650,15	1114,10
650,35	1169,39
650,54	1159,15
650,74	1159,15
650,93	1130,48
651,13	1099,76
651,33	1183,73
651,52	1126,38
651,72	1146,86
651,92	1167,34
652,11	1134,57
652,31	1191,92
652,50	1150,96
652,70	1169,39
652,90	1097,71
653,09	1171,44
653,29	1181,68
653,49	1142,77
653,68	1093,62
653,88	1114,10
654,07	1112,05
654,27	1245,16
654,47	1097,71
654,66	1130,48
654,86	1124,33
655,05	1159,15
655,25	1114,10
655,45	1183,73
655,64	1206,25
655,84	1101,81
656,03	1064,94
656,23	1138,67
656,42	1087,47
656,62	1044,46
656,82	1181,68
657,01	1052,66
657,21	1116,14
657,40	1052,66
657,60	1079,28
657,80	1097,71
657,99	1097,71
658,19	1142,77
658,38	1071,09
658,58	1132,53
658,77	1101,81
658,97	1130,48
659,17	1128,43
659,36	1122,29
659,56	1075,18
659,75	1185,77
659,95	1161,20
660,14	1101,81
660,34	1138,67
660,53	1079,28
660,73	1140,72
660,93	1148,91
661,12	1085,42
661,32	1198,06
661,51	1128,43
661,71	1073,14
661,90	1110,00
662,10	1118,19
662,29	1081,33
662,49	1138,67
662,68	1097,71
662,88	1062,90
663,08	1099,76
663,27	1146,86
663,47	1112,05
663,66	1126,38
663,86	1132,53
664,05	1212,40
664,25	1148,91
664,44	1120,24
664,64	1146,86
664,83	1126,38
665,03	1081,33
665,22	1138,67
665,42	1062,90
665,61	1130,48
665,81	1112,05
666,00	1073,14
666,20	1083,38
666,39	1122,29
666,59	1155,05
666,78	1187,82
666,98	1198,06
667,17	1120,24
667,37	1138,67
667,56	1101,81
667,76	1163,25
667,95	1069,04
668,15	1169,39
668,34	1175,53
668,54	1093,62
668,73	1114,10
668,93	1056,75
669,12	1093,62
669,32	1122,29
669,51	1128,43
669,71	1126,38
669,90	1071,09
670,10	1093,62
670,29	1112,05
670,49	1083,38
670,68	1130,48
670,88	1114,10
671,07	1185,77
671,27	1112,05
671,46	1208,30
671,66	1095,66
671,85	1146,86
672,05	1105,90
672,24	1153,01
672,44	1185,77
672,63	1185,77
672,83	1243,12
673,02	1132,53
673,21	1085,42
673,41	1085,42
673,60	1112,05
673,80	1142,77
673,99	1116,14
674,19	1105,90
674,38	1064,94
674,58	1175,53
674,77	1101,81
674,97	1116,14
675,16	1083,38
675,35	1128,43
675,55	1105,90
675,74	1138,67
675,94	1120,24
676,13	1085,42
676,33	1042,42
676,52	1161,20
676,71	1107,95
676,91	1169,39
677,10	1171,44
677,30	1066,99
677,49	1093,62
677,69	1071,09
677,88	1120,24
678,07	1118,19
678,27	1105,90
678,46	1083,38
678,66	1116,14
678,85	1165,29
679,05	1140,72
679,24	1146,86
679,43	1136,62
679,63	1181,68
679,82	1101,81
680,02	1128,43
680,21	1107,95
680,40	1105,90
680,60	1093,62
680,79	1081,33
680,99	1191,92
681,18	1093,62
681,37	1097,71
681,57	1083,38
681,76	1093,62
681,96	1148,91
682,15	1077,23
682,34	1140,72
682,54	1200,11
682,73	1116,14
682,93	1171,44
683,12	1077,23
683,31	1142,77
683,51	1112,05
683,70	1157,10
683,89	1081,33
684,09	1066,99
684,28	1134,57
684,48	1179,63
684,67	1163,25
684,86	1093,62
685,06	1130,48
685,25	1093,62
685,44	1060,85
685,64	1120,24
685,83	1200,11
686,03	1112,05
686,22	1077,23
686,41	1042,42
686,61	1083,38
686,80	1173,49
686,99	1153,01
687,19	1085,42
687,38	1114,10
687,57	1226,73
687,77	1134,57
687,96	1134,57
688,15	1142,77
688,35	1140,72
688,54	1150,96
688,73	1179,63
688,93	1220,59
689,12	1038,32
689,31	1126,38
689,51	1146,86
689,70	1155,05
689,89	1122,29
690,09	1175,53
690,28	1146,86
690,47	1132,53
690,67	1120,24
690,86	1204,21
691,05	1167,34
691,25	1163,25
691,44	1148,91
691,63	1191,92
691,83	1216,49
692,02	1183,73
692,21	1267,69
692,41	1177,58
692,60	1228,78
692,79	1181,68
692,99	1218,54
693,18	1236,97
693,37	1196,01
693,56	1189,87
693,76	1128,43
693,95	1220,59
694,14	1210,35
694,34	1200,11
694,53	1146,86
694,72	1116,14
694,92	1101,81
695,11	1126,38
695,30	1150,96
695,49	1056,75
695,69	1107,95
695,88	1163,25
696,07	1224,69
696,27	1163,25
696,46	1083,38
696,65	1173,49
696,84	1140,72
697,04	1157,10
697,23	1110,00
697,42	1044,46
697,61	1073,14
697,81	1146,86
698,00	1101,81
698,19	1081,33
698,39	1183,73
698,58	1138,67
698,77	1116,14
698,96	1163,25
699,16	1099,76
699,35	1124,33
699,54	1081,33
699,73	1124,33
699,93	1110,00
700,12	1142,77
700,31	1101,81
700,50	1107,95
700,70	1146,86
700,89	1185,77
701,08	1124,33
701,27	1136,62
701,47	1056,75
701,66	1167,34
701,85	1146,86
702,04	1175,53
702,24	1163,25
702,43	1128,43
702,62	1136,62
702,81	1077,23
703,00	1126,38
703,20	1044,46
703,39	1140,72
703,58	1105,90
703,77	1093,62
703,97	1148,91
704,16	1112,05
704,35	1114,10
704,54	1077,23
704,73	1163,25
704,93	1148,91
705,12	1126,38
705,31	1075,18
705,50	1136,62
705,69	1140,72
705,89	1159,15
706,08	1128,43
706,27	1148,91
706,46	1173,49
706,65	1138,67
706,85	1124,33
707,04	1128,43
707,23	1157,10
707,42	1243,12
707,61	1210,35
707,81	1196,01
708,00	1157,10
708,19	1163,25
708,38	1204,21
708,57	1196,01
708,77	1128,43
708,96	1095,66
709,15	1224,69
709,34	1196,01
709,53	1267,69
709,72	1200,11
709,92	1175,53
710,11	1122,29
710,30	1257,45
710,49	1130,48
710,68	1189,87
710,87	1212,40
711,07	1095,66
711,26	1114,10
711,45	1167,34
711,64	1081,33
711,83	1179,63
712,02	1091,57
712,22	1093,62
712,41	1179,63
712,60	1110,00
712,79	1208,30
712,98	1157,10
713,17	1179,63
713,37	1171,44
713,56	1116,14
713,75	1066,99
713,94	1150,96
714,13	1159,15
714,32	1138,67
714,51	1136,62
714,70	1110,00
714,90	1161,20
715,09	1103,86
715,28	1087,47
715,47	1095,66
715,66	1124,33
715,85	1101,81
716,04	1050,61
716,24	1044,46
716,43	1062,90
716,62	1140,72
716,81	1124,33
717,00	1058,80
717,19	1124,33
717,38	1103,86
717,57	1116,14
717,76	1130,48
717,96	1064,94
718,15	1099,76
718,34	1153,01
718,53	1097,71
718,72	1040,37
718,91	1075,18
719,10	1083,38
719,29	1097,71
719,48	1116,14
719,67	1083,38
719,87	1073,14
720,06	1171,44
720,25	1138,67
720,44	1130,48
720,63	1122,29
720,82	1114,10
721,01	1114,10
721,20	1150,96
721,39	1122,29
721,58	1116,14
721,77	1159,15
721,96	1105,90
722,16	1103,86
722,35	1095,66
722,54	1058,80
722,73	1060,85
722,92	1069,04
723,11	1138,67
723,30	1075,18
723,49	1196,01
723,68	1101,81
723,87	1165,29
724,06	1128,43
724,25	1032,18
724,44	1134,57
724,63	1034,22
724,82	1105,90
725,02	1066,99
725,21	1097,71
725,40	1071,09
725,59	1095,66
725,78	1142,77
725,97	1107,95
726,16	1046,51
726,35	1134,57
726,54	1138,67
726,73	1077,23
726,92	1097,71
727,11	1126,38
727,30	1134,57
727,49	1122,29
727,68	1148,91
727,87	1159,15
728,06	1116,14
728,25	1089,52
728,44	1124,33
728,63	1097,71
728,82	1148,91
729,01	1110,00
729,20	1105,90
729,39	1089,52
729,58	1191,92
729,77	1085,42
729,96	1116,14
730,15	1091,57
730,34	1077,23
730,53	1120,24
730,72	1120,24
730,91	1138,67
731,10	1146,86
731,29	1175,53
731,48	1095,66
731,67	1112,05
731,86	1120,24
732,05	1146,86
732,24	1093,62
732,43	1013,74
732,62	1196,01
732,81	1142,77
733,00	1130,48
733,19	1114,10
733,38	1081,33
733,57	1134,57
733,76	1163,25
733,95	1161,20
734,14	1136,62
734,33	1032,18
734,52	1099,76
734,71	1069,04
734,90	1120,24
735,09	1130,48
735,28	1167,34
735,47	1044,46
735,66	1087,47
735,85	1163,25
736,04	1101,81
736,23	1163,25
736,42	1132,53
736,61	1159,15
736,80	1089,52
736,99	1085,42
737,18	1058,80
737,37	1114,10
737,56	1110,00
737,74	1060,85
737,93	1136,62
738,12	1060,85
738,31	1060,85
738,50	1116,14
738,69	1099,76
738,88	1101,81
739,07	1124,33
739,26	1056,75
739,45	1124,33
739,64	1181,68
739,83	1120,24
740,02	1120,24
740,21	1155,05
740,40	1218,54
740,58	1097,71
740,77	1146,86
740,96	1095,66
741,15	1153,01
741,34	1081,33
741,53	1101,81
741,72	1050,61
741,91	1087,47
742,10	1081,33
742,29	1128,43
742,48	1181,68
742,67	1091,57
742,85	1163,25
743,04	1095,66
743,23	1110,00
743,42	1130,48
743,61	1103,86
743,80	1198,06
743,99	1091,57
744,18	1118,19
744,37	1073,14
744,56	1136,62
744,74	1071,09
744,93	1122,29
745,12	1075,18
745,31	1112,05
745,50	1150,96
745,69	1171,44
745,88	1054,70
746,07	1095,66
746,25	1097,71
746,44	1159,15
746,63	1198,06
746,82	1122,29
747,01	1118,19
747,20	1118,19
747,39	1155,05
747,58	1069,04
747,76	1071,09
747,95	1134,57
748,14	1101,81
748,33	1144,81
748,52	1220,59
748,71	1163,25
748,90	1134,57
749,08	1083,38
749,27	1122,29
749,46	1095,66
749,65	1052,66
749,84	1136,62
750,03	1146,86
750,22	1060,85
750,40	1107,95
750,59	1150,96
750,78	1085,42
750,97	1114,10
751,16	1138,67
751,35	1142,77
751,53	1163,25
751,72	1032,18
751,91	1159,15
752,10	1118,19
752,29	1077,23
752,48	1028,08
752,66	993,26
752,85	1218,54
753,04	1130,48
753,23	1116,14
753,42	1087,47
753,60	1136,62
753,79	1155,05
753,98	1122,29
754,17	1103,86
754,36	1163,25
754,54	1126,38
754,73	1134,57
754,92	1064,94
755,11	1257,45
755,30	1064,94
755,48	1228,78
755,67	1042,42
755,86	1087,47
756,05	1050,61
756,24	1118,19
756,42	1122,29
756,61	1060,85
756,80	1183,73
756,99	1136,62
757,18	1120,24
757,36	1155,05
757,55	1142,77
757,74	1144,81
757,93	1112,05
758,12	1118,19
758,30	1116,14
758,49	1101,81
758,68	1103,86
758,87	1073,14
759,05	1091,57
759,24	1079,28
759,43	1071,09
759,62	1120,24
759,80	1107,95
759,99	1150,96
760,18	1177,58
760,37	1136,62
760,55	1128,43
760,74	1105,90
760,93	1124,33
761,12	1146,86
761,30	1118,19
761,49	1081,33
761,68	1069,04
761,87	1146,86
762,05	1032,18
762,24	1191,92
762,43	1155,05
762,62	1159,15
762,80	1085,42
762,99	1110,00
763,18	1089,52
763,37	1042,42
763,55	1081,33
763,74	1110,00
763,93	1091,57
764,12	1126,38
764,30	1132,53
764,49	1030,13
764,68	1126,38
764,86	1081,33
765,05	1130,48
765,24	1085,42
765,43	1110,00
765,61	1089,52
765,80	1114,10
765,99	1097,71
766,17	1089,52
766,36	1032,18
766,55	1081,33
766,74	1103,86
766,92	1081,33
767,11	1105,90
767,30	1099,76
767,48	1046,51
767,67	1081,33
767,86	1136,62
768,04	1159,15
768,23	1073,14
768,42	1253,36
768,60	1144,81
768,79	1091,57
768,98	1052,66
769,17	1081,33
769,35	1023,98
769,54	1163,25
769,73	1138,67
769,91	1216,49
770,10	1163,25
770,29	1071,09
770,47	1150,96
770,66	1091,57
770,85	1091,57
771,03	1144,81
771,22	1142,77
771,41	1142,77
771,59	1097,71
771,78	1159,15
771,97	1136,62
772,15	1110,00
772,34	1105,90
772,53	1095,66
772,71	1095,66
772,90	1083,38
773,08	1103,86
773,27	1177,58
773,46	1153,01
773,64	1138,67
773,83	1126,38
774,02	1179,63
774,20	1153,01
774,39	1163,25
774,58	1101,81
774,76	1150,96
774,95	1017,84
775,13	1101,81
775,32	1146,86
775,51	1175,53
775,69	1026,03
775,88	1169,39
776,07	1032,18
776,25	1064,94
776,44	1093,62
776,62	1099,76
776,81	1140,72
777,00	1171,44
777,18	1150,96
777,37	1095,66
777,56	1019,89
777,74	1708,01
777,93	1120,24
778,11	1163,25
778,30	1009,65
778,49	1114,10
778,67	1155,05
778,86	1083,38
779,04	1148,91
779,23	1181,68
779,42	1077,23
779,60	1138,67
779,79	1081,33
779,97	1183,73
780,16	1163,25
780,34	1132,53
780,53	1107,95
780,72	1105,90
780,90	1107,95
781,09	1122,29
781,27	1116,14
781,46	1150,96
781,65	1058,80
781,83	1126,38
782,02	1167,34
782,20	1142,77
782,39	1153,01
782,57	1138,67
782,76	1097,71
782,95	1138,67
783,13	1175,53
783,32	1114,10
783,50	1093,62
783,69	1107,95
783,87	1110,00
784,06	1163,25
784,24	1087,47
784,43	1013,74
784,62	1087,47
784,80	1099,76
784,99	1148,91
785,17	1099,76
785,36	1087,47
785,54	1099,76
785,73	1052,66
785,91	1120,24
786,10	1130,48
786,28	1114,10
786,47	1054,70
786,65	1153,01
786,84	1134,57
787,02	1066,99
787,21	1118,19
787,40	1114,10
787,58	1023,98
787,77	1036,27
787,95	1163,25
788,14	1087,47
788,32	1073,14
788,51	1038,32
788,69	1159,15
788,88	1099,76
789,06	1069,04
789,25	1112,05
789,43	1163,25
789,62	1177,58
789,80	1036,27
789,99	1171,44
790,17	1075,18
790,36	1083,38
790,54	1114,10
790,73	1146,86
790,91	1140,72
791,10	1081,33
791,28	1105,90
791,47	1052,66
791,65	1046,51
791,84	1136,62
792,02	1120,24
792,21	1101,81
792,39	1140,72
792,58	1091,57
792,76	1112,05
792,94	1187,82
793,13	1089,52
793,31	1093,62
793,50	1189,87
793,68	1091,57
793,87	1081,33
794,05	1122,29
794,24	1161,20
794,42	1126,38
794,61	1087,47
794,79	1081,33
794,98	1155,05
795,16	1159,15
795,34	1163,25
795,53	1073,14
795,71	1116,14
795,90	1069,04
796,08	1114,10
796,27	1116,14
796,45	1050,61
796,64	1120,24
796,82	1060,85
797,00	1114,10
797,19	1183,73
797,37	1105,90
797,56	1116,14
797,74	1073,14
797,93	1142,77
798,11	1122,29
798,29	1093,62
798,48	1062,90
798,66	1097,71
798,85	1095,66
799,03	1064,94
799,22	1081,33
799,40	1095,66
799,58	1138,67
799,77	1093,62
799,95	1085,42
800,14	1142,77
800,32	1130,48
800,50	1136,62
800,69	1126,38
800,87	1110,00
801,06	1077,23
801,24	1122,29
801,42	1112,05
801,61	1062,90
801,79	1148,91
801,98	1122,29
802,16	1138,67
802,34	1056,75
802,53	1130,48
802,71	1159,15
802,90	1103,86
803,08	1077,23
803,26	1091,57
803,45	1105,90
803,63	1060,85
803,82	1144,81
804,00	1116,14
804,18	1105,90
804,37	1105,90
804,55	1105,90
804,73	1081,33
804,92	1173,49
805,10	1146,86
805,28	1099,76
805,47	1134,57
805,65	1044,46
805,84	1114,10
806,02	1056,75
806,20	1097,71
806,39	1120,24
806,57	1093,62
806,75	1196,01
806,94	1142,77
807,12	1159,15
807,30	1114,10
807,49	1146,86
807,67	1157,10
807,85	1089,52
808,04	1173,49
808,22	1116,14
808,40	1085,42
808,59	1183,73
808,77	1120,24
808,95	1046,51
809,14	1040,37
809,32	1140,72
809,50	1148,91
809,69	1079,28
809,87	1103,86
810,05	1187,82
810,24	1189,87
810,42	1132,53
810,60	1116,14
810,79	1087,47
810,97	1030,13
811,15	1124,33
811,34	1153,01
811,52	1134,57
811,70	1087,47
811,88	1138,67
812,07	1122,29
812,25	1138,67
812,43	1069,04
812,62	1062,90
812,80	1120,24
812,98	1097,71
813,17	1099,76
813,35	1073,14
813,53	1093,62
813,71	1032,18
813,90	1183,73
814,08	1095,66
814,26	1116,14
814,45	1107,95
814,63	1056,75
814,81	1101,81
814,99	1140,72
815,18	1118,19
815,36	1177,58
815,54	1056,75
815,72	1163,25
815,91	1101,81
816,09	1107,95
816,27	1114,10
816,46	1101,81
816,64	1075,18
816,82	1091,57
817,00	1134,57
817,19	1138,67
817,37	1153,01
817,55	1052,66
817,73	1134,57
817,92	1130,48
818,10	1144,81
818,28	1193,97
818,46	1101,81
818,65	1064,94
818,83	1124,33
819,01	1085,42
819,19	1077,23
819,37	1007,60
819,56	1116,14
819,74	1044,46
819,92	1032,18
820,10	1124,33
820,29	1130,48
820,47	1120,24
820,65	1056,75
820,83	1140,72
821,02	1103,86
821,20	1138,67
821,38	1136,62
821,56	1148,91
821,74	1105,90
821,93	1046,51
822,11	1167,34
822,29	1083,38
822,47	1126,38
822,65	1017,84
822,84	1064,94
823,02	1073,14
823,20	1060,85
823,38	1146,86
823,56	1060,85
823,75	1116,14
823,93	1081,33
824,11	1089,52
824,29	1110,00
824,47	1120,24
824,66	1134,57
824,84	1077,23
825,02	1140,72
825,20	1136,62
825,38	1128,43
825,56	1097,71
825,75	1200,11
825,93	1202,16
826,11	1093,62
826,29	1073,14
826,47	978,93
826,65	1107,95
826,84	1013,74
827,02	1175,53
827,20	1073,14
827,38	1101,81
827,56	1112,05
827,74	1138,67
827,93	1132,53
828,11	1140,72
828,29	1073,14
828,47	1075,18
828,65	1085,42
828,83	1087,47
829,02	1028,08
829,20	1073,14
829,38	1081,33
829,56	1153,01
829,74	1124,33
829,92	1163,25
830,10	1005,55
830,28	1112,05
830,47	1089,52
830,65	1105,90
830,83	1064,94
831,01	1093,62
831,19	1099,76
831,37	1132,53
831,55	1132,53
831,73	1118,19
831,92	1153,01
832,10	1069,04
832,28	1081,33
832,46	1064,94
832,64	1114,10
832,82	1103,86
833,00	1112,05
833,18	1073,14
833,36	1062,90
833,55	1144,81
833,73	1054,70
833,91	1099,76
834,09	1112,05
834,27	1134,57
834,45	1191,92
834,63	1146,86
834,81	1079,28
834,99	1083,38
835,17	1112,05
835,36	1161,20
835,54	1056,75
835,72	1124,33
835,90	1040,37
836,08	1220,59
836,26	1126,38
836,44	1030,13
836,62	1150,96
836,80	1077,23
836,98	1120,24
837,16	1175,53
837,34	1126,38
837,52	1110,00
837,71	1187,82
837,89	1105,90
838,07	1134,57
838,25	1101,81
838,43	1064,94
838,61	1146,86
838,79	1079,28
838,97	1099,76
839,15	1105,90
839,33	1126,38
839,51	1118,19
839,69	1110,00
839,87	1114,10
840,05	1144,81
840,23	1107,95
840,41	1089,52
840,59	1124,33
840,77	1122,29
840,95	1040,37
841,13	1134,57
841,31	1054,70
841,49	1062,90
841,67	1173,49
841,86	1118,19
842,04	1056,75
842,22	1085,42
842,40	1103,86
842,58	1110,00
842,76	1017,84
842,94	1105,90
843,12	1069,04
843,30	1118,19
843,48	1167,34
843,66	1181,68
843,84	1095,66
844,02	1097,71
844,20	1185,77
844,38	1114,10
844,56	1138,67
844,74	1191,92
844,92	1085,42
845,10	1138,67
845,28	1161,20
845,46	1091,57
845,64	1136,62
845,82	1136,62
846,00	1099,76
846,18	1064,94
846,36	1122,29
846,54	1079,28
846,72	1081,33
846,90	1083,38
847,07	1046,51
847,25	1169,39
847,43	1093,62
847,61	1118,19
847,79	1107,95
847,97	1105,90
848,15	1136,62
848,33	1107,95
848,51	1087,47
848,69	1107,95
848,87	1089,52
849,05	1126,38
849,23	1206,25
849,41	1116,14
849,59	1052,66
849,77	1148,91
849,95	1097,71
850,13	1091,57
850,31	1040,37
850,49	1130,48
850,67	1042,42
850,85	1101,81
851,02	1034,22
851,20	1155,05
851,38	1177,58
851,56	1060,85
851,74	1187,82
851,92	1091,57
852,10	1103,86
852,28	1175,53
852,46	1124,33
852,64	1099,76
852,82	1116,14
853,00	1089,52
853,18	1132,53
853,36	1042,42
853,53	1179,63
853,71	1163,25
853,89	1169,39
854,07	1107,95
854,25	1161,20
854,43	1114,10
854,61	1097,71
854,79	1155,05
854,97	1122,29
855,15	1171,44
855,32	1052,66
855,50	1097,71
855,68	1079,28
855,86	1134,57
856,04	1128,43
856,22	1026,03
856,40	1171,44
856,58	1058,80
856,76	1073,14
856,93	1124,33
857,11	1140,72
857,29	1124,33
857,47	1107,95
857,65	1089,52
857,83	1136,62
858,01	1091,57
858,19	1167,34
858,36	1103,86
858,54	1054,70
858,72	1130,48
858,90	1093,62
859,08	1148,91
859,26	1083,38
859,44	1110,00
859,61	1105,90
859,79	1165,29
859,97	1146,86
860,15	1077,23
860,33	1138,67
860,51	1161,20
860,69	1056,75
860,86	1187,82
861,04	1081,33
861,22	1181,68
861,40	1130,48
861,58	1148,91
861,76	1095,66
861,93	1069,04
862,11	1159,15
862,29	1085,42
862,47	1071,09
862,65	1140,72
862,83	1103,86
863,00	1077,23
863,18	1071,09
863,36	1103,86
863,54	1054,70
863,72	1118,19
863,89	1071,09
864,07	1101,81
864,25	1066,99
864,43	1155,05
864,61	1167,34
864,78	1130,48
864,96	1079,28
865,14	1118,19
865,32	1142,77
865,50	1103,86
865,67	1116,14
865,85	1073,14
866,03	1101,81
866,21	1073,14
866,39	1064,94
866,56	1140,72
866,74	1159,15
866,92	1058,80
867,10	1107,95
867,28	1075,18
867,45	1052,66
867,63	1066,99
867,81	1042,42
867,99	1089,52
868,16	1132,53
868,34	1236,97
868,52	1064,94
868,70	1132,53
868,87	1120,24
869,05	1099,76
869,23	1112,05
869,41	1116,14
869,59	1159,15
869,76	1122,29
869,94	1101,81
870,12	1107,95
870,30	1120,24
870,47	1038,32
870,65	1091,57
870,83	1132,53
871,01	1122,29
871,18	1052,66
871,36	1093,62
871,54	1185,77
871,71	1060,85
871,89	1095,66
872,07	1116,14
872,25	1183,73
872,42	1122,29
872,60	1085,42
872,78	1183,73
872,96	1097,71
873,13	1089,52
873,31	1136,62
873,49	1134,57
873,66	1095,66
873,84	1140,72
874,02	1159,15
874,20	1110,00
874,37	1130,48
874,55	1138,67
874,73	1103,86
874,90	1173,49
875,08	1171,44
875,26	1032,18
875,44	1087,47
875,61	1077,23
875,79	1091,57
875,97	1066,99
876,14	1130,48
876,32	1103,86
876,50	1089,52
876,67	1103,86
876,85	1124,33
877,03	1040,37
877,20	1112,05
877,38	1015,79
877,56	1146,86
877,73	1085,42
877,91	1101,81
878,09	1062,90
878,26	1140,72
878,44	1173,49
878,62	1083,38
878,79	1146,86
878,97	1148,91
879,15	1212,40
879,32	1089,52
879,50	1071,09
879,68	1153,01
879,85	1144,81
880,03	1089,52
880,21	1060,85
880,38	1153,01
880,56	1042,42
880,74	1126,38
880,91	1136,62
881,09	1040,37
881,27	1134,57
881,44	1060,85
881,62	1066,99
881,79	1101,81
881,97	1058,80
882,15	1128,43
882,32	1150,96
882,50	1114,10
882,68	1087,47
882,85	1122,29
883,03	1064,94
883,21	1124,33
883,38	1128,43
883,56	1105,90
883,73	1073,14
883,91	1114,10
884,09	1163,25
884,26	1058,80
884,44	1052,66
884,61	1066,99
884,79	1118,19
884,97	1101,81
885,14	1075,18
885,32	1075,18
885,49	1153,01
885,67	1130,48
885,85	1073,14
886,02	1159,15
886,20	1105,90
886,37	1107,95
886,55	1056,75
886,73	1058,80
886,90	1034,22
887,08	1153,01
887,25	1097,71
887,43	1075,18
887,60	1159,15
887,78	1085,42
887,96	1095,66
888,13	1085,42
888,31	1071,09
888,48	1136,62
888,66	1052,66
888,83	1089,52
889,01	1124,33
889,19	1236,97
889,36	1066,99
889,54	1144,81
889,71	1173,49
889,89	1073,14
890,06	1126,38
890,24	1105,90
890,41	1095,66
890,59	1120,24
890,77	1130,48
890,94	1116,14
891,12	1136,62
891,29	1081,33
891,47	1114,10
891,64	1114,10
891,82	1097,71
891,99	1038,32
892,17	1155,05
892,34	1091,57
892,52	1140,72
892,69	1081,33
892,87	1110,00
893,04	1132,53
893,22	1093,62
893,40	1142,77
893,57	1150,96
893,75	1142,77
893,92	1126,38
894,10	1097,71
894,27	1202,16
894,45	1132,53
894,62	1140,72
894,80	1148,91
894,97	1107,95
895,15	1169,39
895,32	1124,33
895,50	1097,71
895,67	1134,57
895,85	1071,09
896,02	1077,23
896,20	1040,37
896,37	1132,53
896,55	1165,29
896,72	1034,22
896,89	1134,57
897,07	1144,81
897,24	1110,00
897,42	1150,96
897,59	1085,42
897,77	1044,46
897,94	1056,75
898,12	1073,14
898,29	1214,45
898,47	1103,86
898,64	1134,57
898,82	1101,81
898,99	1142,77
899,17	1044,46
899,34	1118,19
899,52	1110,00
899,69	1189,87
899,86	1134,57
900,04	1085,42
900,21	1114,10
900,39	1058,80
900,56	1081,33
900,74	1191,92
900,91	1091,57
901,09	1163,25
901,26	1157,10
901,43	1130,48
901,61	1118,19
901,78	1120,24
901,96	1165,29
902,13	1138,67
902,31	1189,87
902,48	1089,52
902,65	1167,34
902,83	1124,33
903,00	1028,08
903,18	1077,23
903,35	1148,91
903,53	1126,38
903,70	1071,09
903,87	1142,77
904,05	1114,10
904,22	1089,52
904,40	1148,91
904,57	1101,81
904,74	1079,28
904,92	1103,86
905,09	1075,18
905,27	1148,91
905,44	1146,86
905,61	1110,00
905,79	1126,38
905,96	1085,42
906,13	1030,13
906,31	1179,63
906,48	1081,33
906,66	1079,28
906,83	1142,77
907,00	1107,95
907,18	1079,28
907,35	1138,67
907,53	1097,71
907,70	1056,75
907,87	1071,09
908,05	1110,00
908,22	1077,23
908,39	1116,14
908,57	1142,77
908,74	1220,59
908,91	1064,94
909,09	1179,63
909,26	1107,95
909,44	1081,33
909,61	1066,99
909,78	1124,33
909,96	1103,86
910,13	1122,29
910,30	1120,24
910,48	1064,94
910,65	1069,04
910,82	1155,05
911,00	1157,10
911,17	1128,43
911,34	1069,04
911,52	1093,62
911,69	1126,38
911,86	1146,86
912,04	1183,73
912,21	1107,95
912,38	1118,19
912,56	1083,38
912,73	1144,81
912,90	1155,05
913,08	1122,29
913,25	1097,71
913,42	1075,18
913,59	1132,53
913,77	1134,57
913,94	1077,23
914,11	1187,82
914,29	1122,29
914,46	1114,10
914,63	1122,29
914,81	1034,22
914,98	1085,42
915,15	1071,09
915,32	1013,74
915,50	1110,00
915,67	1077,23
915,84	1146,86
916,02	1095,66
916,19	1161,20
916,36	1132,53
916,53	1087,47
916,71	1130,48
916,88	1107,95
917,05	1077,23
917,23	1075,18
917,40	1138,67
917,57	1048,56
917,74	1077,23
917,92	1075,18
918,09	1120,24
918,26	1044,46
918,43	1136,62
918,61	1130,48
918,78	1103,86
918,95	1155,05
919,12	1114,10
919,30	1107,95
919,47	1167,34
919,64	1126,38
919,81	1079,28
919,99	1058,80
920,16	1081,33
920,33	1050,61
920,50	1114,10
920,68	1126,38
920,85	1130,48
921,02	1032,18
921,19	1081,33
921,36	1050,61
921,54	1081,33
921,71	1075,18
921,88	1146,86
922,05	1183,73
922,23	1165,29
922,40	1112,05
922,57	1136,62
922,74	1116,14
922,91	1134,57
923,09	1087,47
923,26	1087,47
923,43	1153,01
923,60	1081,33
923,77	1056,75
923,95	1087,47
924,12	1085,42
924,29	1159,15
924,46	1062,90
924,63	1095,66
924,81	1062,90
924,98	1062,90
925,15	1081,33
925,32	1069,04
925,49	1114,10
925,67	1060,85
925,84	1226,73
926,01	1066,99
926,18	1093,62
926,35	1114,10
926,52	1185,77
926,70	1097,71
926,87	1134,57
927,04	1107,95
927,21	1138,67
927,38	1110,00
927,55	1077,23
927,73	1212,40
927,90	1066,99
928,07	1114,10
928,24	1101,81
928,41	1075,18
928,58	1110,00
928,76	1112,05
928,93	1126,38
929,10	1196,01
929,27	983,02
929,44	1132,53
929,61	1048,56
929,78	1138,67
929,96	1062,90
930,13	1163,25
930,30	1077,23
930,47	999,41
930,64	1093,62
930,81	1097,71
930,98	1097,71
931,15	1150,96
931,33	1091,57
931,50	1101,81
931,67	1110,00
931,84	1136,62
932,01	1066,99
932,18	1073,14
932,35	1155,05
932,52	1046,51
932,69	1130,48
932,87	1122,29
933,04	1110,00
933,21	1175,53
933,38	1050,61
933,55	1122,29
933,72	1087,47
933,89	1089,52
934,06	1146,86
934,23	1095,66
934,40	1124,33
934,58	1140,72
934,75	1134,57
934,92	1159,15
935,09	1099,76
935,26	1142,77
935,43	1066,99
935,60	1032,18
935,77	1114,10
935,94	1171,44
936,11	1142,77
936,28	1077,23
936,45	1171,44
936,62	1116,14
936,79	1171,44
936,97	1140,72
937,14	1073,14
937,31	1081,33
937,48	1179,63
937,65	1054,70
937,82	1064,94
937,99	1208,30
938,16	1093,62
938,33	1122,29
938,50	1157,10
938,67	1146,86
938,84	1120,24
939,01	1114,10
939,18	1097,71
939,35	1130,48
939,52	1091,57
939,69	1165,29
939,86	1077,23
940,03	1140,72
940,20	1128,43
940,37	1099,76
940,54	1085,42
940,71	1095,66
940,88	1150,96
941,05	1122,29
941,22	1011,70
941,39	1056,75
941,56	1083,38
941,73	1064,94
941,91	1105,90
942,08	1064,94
942,25	1241,07
942,42	1075,18
942,59	1054,70
942,76	1144,81
942,93	1105,90
943,09	1011,70
943,26	1112,05
943,43	1087,47
943,60	1134,57
943,77	1132,53
943,94	1062,90
944,11	1128,43
944,28	1066,99
944,45	1091,57
944,62	1042,42
944,79	1085,42
944,96	1087,47
945,13	1132,53
945,30	1034,22
945,47	1198,06
945,64	1099,76
945,81	1148,91
945,98	1101,81
946,15	1095,66
946,32	1140,72
946,49	1210,35
946,66	1173,49
946,83	1110,00
947,00	1140,72
947,17	1023,98
947,34	1120,24
947,51	1099,76
947,68	1089,52
947,85	1122,29
948,02	1136,62
948,18	1110,00
948,35	1044,46
948,52	1107,95
948,69	1114,10
948,86	1155,05
949,03	1034,22
949,20	1169,39
949,37	1073,14
949,54	1120,24
949,71	1069,04
949,88	1083,38
950,05	1148,91
950,22	1105,90
950,38	1085,42
950,55	1116,14
950,72	1038,32
950,89	1112,05
951,06	1134,57
951,23	1110,00
951,40	1073,14
951,57	1091,57
951,74	1241,07
951,91	1101,81
952,08	1062,90
952,24	1198,06
952,41	1075,18
952,58	1128,43
952,75	1034,22
952,92	1097,71
953,09	1110,00
953,26	1114,10
953,43	1085,42
953,59	1064,94
953,76	1110,00
953,93	1130,48
954,10	1023,98
954,27	1163,25
954,44	1146,86
954,61	1073,14
954,78	1155,05
954,94	1114,10
955,11	1142,77
955,28	1208,30
955,45	1060,85
955,62	1144,81
955,79	1069,04
955,96	1126,38
956,12	1077,23
956,29	1101,81
956,46	1155,05
956,63	1110,00
956,80	1056,75
956,97	1153,01
957,13	1089,52
957,30	1126,38
957,47	1126,38
957,64	1138,67
957,81	1105,90
957,98	1130,48
958,14	1130,48
958,31	1114,10
958,48	1114,10
958,65	1142,77
958,82	1105,90
958,99	1134,57
959,15	1128,43
959,32	1126,38
959,49	1081,33
959,66	1142,77
959,83	1142,77
959,99	1077,23
960,16	1161,20
960,33	1163,25
960,50	1157,10
960,67	1179,63
960,83	1126,38
961,00	1103,86
961,17	1146,86
961,34	1120,24
961,51	1101,81
961,67	1200,11
961,84	1198,06
962,01	1110,00
962,18	1097,71
962,35	1056,75
962,51	1097,71
962,68	1064,94
962,85	1085,42
963,02	1101,81
963,18	1138,67
963,35	1179,63
963,52	1165,29
963,69	1161,20
963,86	1107,95
964,02	1163,25
964,19	1105,90
964,36	1089,52
964,53	1017,84
964,69	1101,81
964,86	1087,47
965,03	1089,52
965,20	1089,52
965,36	1130,48
965,53	1089,52
965,70	1171,44
965,87	1118,19
966,03	1132,53
966,20	1101,81
966,37	1155,05
966,53	1175,53
966,70	1077,23
966,87	1093,62
967,04	1163,25
967,20	1058,80
967,37	1116,14
967,54	987,12
967,71	1120,24
967,87	1052,66
968,04	1081,33
968,21	1060,85
968,37	1073,14
968,54	1107,95
968,71	1126,38
968,88	1066,99
969,04	1110,00
969,21	1130,48
969,38	1122,29
969,54	1060,85
969,71	1144,81
969,88	1062,90
970,04	1054,70
970,21	1097,71
970,38	1167,34
970,55	1136,62
970,71	1083,38
970,88	1087,47
971,05	1118,19
971,21	1126,38
971,38	1110,00
971,55	1093,62
971,71	1036,27
971,88	1073,14
972,05	1064,94
972,21	1079,28
972,38	1081,33
972,55	1130,48
972,71	1198,06
972,88	1165,29
973,05	1013,74
973,21	1093,62
973,38	1095,66
973,55	1118,19
973,71	1083,38
973,88	1064,94
974,05	1130,48
974,21	1103,86
974,38	1075,18
974,54	1183,73
974,71	1185,77
974,88	1107,95
975,04	1200,11
975,21	1077,23
975,38	1132,53
975,54	1105,90
975,71	1099,76
975,88	1060,85
976,04	1062,90
976,21	1087,47
976,37	1058,80
976,54	1101,81
976,71	1118,19
976,87	1118,19
977,04	1097,71
977,20	1136,62
977,37	1122,29
977,54	1056,75
977,70	1171,44
977,87	1056,75
978,03	1103,86
978,20	1110,00
978,37	1114,10
978,53	1107,95
978,70	1073,14
978,86	1138,67
979,03	1069,04
979,20	1185,77
979,36	1091,57
979,53	1116,14
979,69	1089,52
979,86	1050,61
980,03	1048,56
980,19	1101,81
980,36	1075,18
980,52	1140,72
980,69	1116,14
980,85	1093,62
981,02	1126,38
981,19	1079,28
981,35	1116,14
981,52	1087,47
981,68	1191,92
981,85	1128,43
982,01	1155,05
982,18	1060,85
982,34	1089,52
982,51	1122,29
982,68	1032,18
982,84	1132,53
983,01	1028,08
983,17	1138,67
983,34	1081,33
983,50	1011,70
983,67	1200,11
983,83	1069,04
984,00	1095,66
984,16	1110,00
984,33	1083,38
984,49	1114,10
984,66	1124,33
984,83	1050,61
984,99	1087,47
985,16	1077,23
985,32	1058,80
985,49	1128,43
985,65	1066,99
985,82	1054,70
985,98	1077,23
986,15	1077,23
986,31	1148,91
986,48	1183,73
986,64	1099,76
986,81	1060,85
986,97	1101,81
987,14	1183,73
987,30	1091,57
987,47	1095,66
987,63	1091,57
987,80	1167,34
987,96	1177,58
988,13	1144,81
988,29	1114,10
988,46	1142,77
988,62	1105,90
988,79	1155,05
988,95	1122,29
989,11	1087,47
989,28	1089,52
989,44	1136,62
989,61	1079,28
989,77	1136,62
989,94	1089,52
990,10	1071,09
990,27	1138,67
990,43	1066,99
990,60	1097,71
990,76	1066,99
990,93	1058,80
991,09	1105,90
991,25	1073,14
991,42	1075,18
991,58	1091,57
991,75	1120,24
991,91	1085,42
992,08	1023,98
992,24	1120,24
992,41	1077,23
992,57	1191,92
992,73	1075,18
992,90	1110,00
993,06	1056,75
993,23	1083,38
993,39	1142,77
993,56	1134,57
993,72	1142,77
993,88	1091,57
994,05	1042,42
994,21	1173,49
994,38	1120,24
994,54	1019,89
994,70	1073,14
994,87	1146,86
995,03	1124,33
995,20	1179,63
995,36	1089,52
995,52	1097,71
995,69	1081,33
995,85	1034,22
996,02	1079,28
996,18	1161,20
996,34	1103,86
996,51	1116,14
996,67	1134,57
996,84	1134,57
997,00	1128,43
997,16	1089,52
997,33	1118,19
997,49	1079,28
997,65	993,26
997,82	1124,33
997,98	1085,42
998,15	1120,24
998,31	1046,51
998,47	1153,01
998,64	1105,90
998,80	1089,52
998,96	1079,28
999,13	1044,46
999,29	1136,62
999,45	1083,38
999,62	1130,48
999,78	1148,91
999,94	1099,76
1000,11	1165,29
1000,27	1038,32
1000,44	1150,96
1000,60	1056,75
1000,76	1060,85
1000,93	1140,72
1001,09	1097,71
1001,25	1116,14
1001,42	1054,70
1001,58	1120,24
1001,74	1101,81
1001,90	1095,66
1002,07	1064,94
1002,23	1153,01
1002,39	1165,29
1002,56	1116,14
1002,72	1124,33
1002,88	1112,05
1003,05	1107,95
1003,21	1099,76
1003,37	1124,33
1003,54	1159,15
1003,70	1134,57
1003,86	1122,29
1004,03	1060,85
1004,19	1087,47
1004,35	1146,86
1004,51	1087,47
1004,68	1118,19
1004,84	1146,86
1005,00	1173,49
1005,17	1073,14
1005,33	1089,52
1005,49	1146,86
1005,65	1146,86
1005,82	1122,29
1005,98	1187,82
1006,14	1093,62
1006,30	1036,27
1006,47	1099,76
1006,63	1101,81
1006,79	1085,42
1006,96	1116,14
1007,12	1144,81
1007,28	1091,57
1007,44	1060,85
1007,61	1114,10
1007,77	1044,46
1007,93	1177,58
1008,09	1026,03
1008,26	1073,14
1008,42	1048,56
1008,58	1099,76
1008,74	1114,10
1008,91	1171,44
1009,07	1155,05
1009,23	1120,24
1009,39	1193,97
1009,55	1120,24
1009,72	1132,53
1009,88	1093,62
1010,04	1107,95
1010,20	1075,18
1010,37	1081,33
1010,53	1171,44
1010,69	1105,90
1010,85	1142,77
1011,01	1056,75
1011,18	1138,67
1011,34	1167,34
1011,50	1128,43
1011,66	1040,37
1011,82	1200,11
1011,99	1128,43
1012,15	1159,15
1012,31	1110,00
1012,47	1157,10
1012,63	1011,70
1012,80	1124,33
1012,96	1085,42
1013,12	1122,29
1013,28	1054,70
1013,44	1144,81
1013,61	1073,14
1013,77	1062,90
1013,93	1153,01
1014,09	1134,57
1014,25	1112,05
1014,41	1105,90
1014,58	1107,95
1014,74	1085,42
1014,90	1069,04
1015,06	1185,77
1015,22	1097,71
1015,38	1132,53
1015,55	1112,05
1015,71	1183,73
1015,87	1157,10
1016,03	1146,86
1016,19	1089,52
1016,35	1157,10
1016,52	1185,77
1016,68	1142,77
1016,84	1161,20
1017,00	1163,25
1017,16	1114,10
1017,32	1261,55
1017,48	1167,34
1017,65	1179,63
1017,81	1179,63
1017,97	1120,24
1018,13	1122,29
1018,29	1155,05
1018,45	1159,15
1018,61	1142,77
1018,77	1134,57
1018,93	1136,62
1019,10	1200,11
1019,26	1198,06
1019,42	1163,25
1019,58	1128,43
1019,74	1191,92
1019,90	1101,81
1020,06	1175,53
1020,22	1196,01
1020,38	1114,10
1020,55	1118,19
1020,71	1093,62
1020,87	1122,29
1021,03	1105,90
1021,19	1083,38
1021,35	1128,43
1021,51	1134,57
1021,67	1144,81
1021,83	1069,04
1021,99	1183,73
1022,15	1163,25
1022,31	1163,25
1022,48	1150,96
1022,64	1175,53
1022,80	1179,63
1022,96	1232,88
1023,12	1101,81
1023,28	1175,53
1023,44	1120,24
1023,60	1167,34
1023,76	1101,81
1023,92	1054,70
1024,08	1099,76
1024,24	1093,62
1024,40	1130,48
1024,56	993,26
1024,72	1165,29
1024,88	1112,05
1025,04	1097,71
1025,21	1040,37
1025,37	1181,68
1025,53	1112,05
1025,69	1134,57
1025,85	1105,90
1026,01	1116,14
1026,17	1142,77
1026,33	1048,56
1026,49	1079,28
1026,65	1146,86
1026,81	1126,38
1026,97	1120,24
1027,13	1146,86
1027,29	1179,63
1027,45	1126,38
1027,61	1146,86
1027,77	1132,53
1027,93	1177,58
1028,09	1011,70
1028,25	1116,14
1028,41	1087,47
1028,57	1097,71
1028,73	1118,19
1028,89	1126,38
1029,05	1087,47
1029,21	1146,86
1029,37	1097,71
1029,53	1105,90
1029,69	1142,77
1029,85	1103,86
1030,01	1056,75
1030,17	1101,81
1030,33	1142,77
1030,49	1120,24
1030,65	1118,19
1030,81	1105,90
1030,97	1095,66
1031,13	1171,44
1031,29	1105,90
1031,45	1159,15
1031,60	1066,99
1031,76	1114,10
1031,92	1097,71
1032,08	1062,90
1032,24	1097,71
1032,40	1165,29
1032,56	1073,14
1032,72	1081,33
1032,88	1079,28
1033,04	1095,66
1033,20	1150,96
1033,36	1134,57
1033,52	1163,25
1033,68	1089,52
1033,84	1071,09
1034,00	1040,37
1034,16	1083,38
1034,32	1181,68
1034,47	1056,75
1034,63	1097,71
1034,79	1177,58
1034,95	1064,94
1035,11	1216,49
1035,27	1023,98
1035,43	1112,05
1035,59	1093,62
1035,75	1046,51
1035,91	1073,14
1036,07	1069,04
1036,22	1120,24
1036,38	1064,94
1036,54	1107,95
1036,70	1214,45
1036,86	1153,01
1037,02	1038,32
1037,18	1122,29
1037,34	1095,66
1037,50	1050,61
1037,65	1191,92
>>>>>End Processed Spectral Data<<<<<
