SpectraSuite Datei
++++++++++++++++++++++++++++++++++++
Datum: Fri Dec 16 12:20:22 CET 2022
Benutzer: spektr
Dark-Spektrum vorhanden: Nein
Referenz-Spektrum vorhanden: Nein
Zahl der probierten Teilspektren: 1
Spektrometer: USB4F00406
Integrationszeit (usec): 100000 (USB4F00406)
Spektren Durchschnitt berechnet: 1 (USB4F00406)
Boxcar Glättung: 0 (USB4F00406)
Dunkelstromkorrektur: Nein (USB4F00406)
Puls/Lampe aktiviert: Nein (USB4F00406)
Correct for Detector Non-linearity: Nein (USB4F00406)
Streulichtkorrektur: Nein (USB4F00406)
Anzahl Pixel in verarbeitetem Spektrum: 3648
>>>>>Begin Processed Spectral Data<<<<<
345,69	1052,66
345,91	1052,66
346,12	1052,66
346,34	1066,99
346,55	1054,70
346,77	1185,77
346,98	1134,57
347,20	1167,34
347,41	1173,49
347,63	1210,35
347,84	1142,77
348,06	1208,30
348,27	1175,53
348,49	1148,91
348,70	1220,59
348,92	1140,72
349,13	1241,07
349,35	1044,46
349,56	1155,05
349,78	1163,25
349,99	1239,02
350,20	1110,00
350,42	1214,45
350,63	1218,54
350,85	1261,55
351,06	1165,29
351,28	1150,96
351,49	1169,39
351,71	1120,24
351,92	1173,49
352,14	1312,75
352,35	1146,86
352,57	1171,44
352,78	1189,87
353,00	1198,06
353,21	1107,95
353,43	1183,73
353,64	1183,73
353,85	1185,77
354,07	1140,72
354,28	1198,06
354,50	1200,11
354,71	1198,06
354,93	1241,07
355,14	1191,92
355,36	1144,81
355,57	1177,58
355,79	1214,45
356,00	1157,10
356,21	1167,34
356,43	1183,73
356,64	1167,34
356,86	1228,78
357,07	1099,76
357,29	1245,16
357,50	1167,34
357,72	1236,97
357,93	1198,06
358,14	1191,92
358,36	1150,96
358,57	1261,55
358,79	1204,21
359,00	1241,07
359,22	1191,92
359,43	1181,68
359,65	1193,97
359,86	1212,40
360,07	1183,73
360,29	1175,53
360,50	1220,59
360,72	1241,07
360,93	1257,45
361,14	1292,27
361,36	1304,56
361,57	1507,30
361,79	1748,97
362,00	2074,59
362,22	2174,94
362,43	2144,22
362,64	2004,96
362,86	1779,68
363,07	1535,98
363,29	1345,52
363,50	1257,45
363,72	1314,80
363,93	1161,20
364,14	1198,06
364,36	1208,30
364,57	1185,77
364,79	1196,01
365,00	1286,12
365,21	1353,71
365,43	1759,21
365,64	2514,91
365,86	3098,58
366,07	3553,23
366,28	3862,47
366,50	3796,93
366,71	3489,74
366,93	3028,95
367,14	2652,12
367,35	2277,34
367,57	2043,87
367,78	1789,92
367,99	1550,31
368,21	1359,85
368,42	1378,28
368,64	1286,12
368,85	1222,64
369,06	1208,30
369,28	1138,67
369,49	1247,21
369,71	1193,97
369,92	1110,00
370,13	1232,88
370,35	1171,44
370,56	1191,92
370,77	1245,16
370,99	1183,73
371,20	1183,73
371,42	1126,38
371,63	1226,73
371,84	1126,38
372,06	1150,96
372,27	1200,11
372,48	1107,95
372,70	1183,73
372,91	1232,88
373,12	1279,98
373,34	1204,21
373,55	1132,53
373,77	1140,72
373,98	1228,78
374,19	1138,67
374,41	1187,82
374,62	1187,82
374,83	1179,63
375,05	1095,66
375,26	1148,91
375,47	1302,51
375,69	1224,69
375,90	1251,31
376,11	1314,80
376,33	1218,54
376,54	1179,63
376,75	1179,63
376,97	1122,29
377,18	1193,97
377,40	1150,96
377,61	1228,78
377,82	1126,38
378,04	1230,83
378,25	1148,91
378,46	1130,48
378,68	1163,25
378,89	1097,71
379,10	1224,69
379,32	1236,97
379,53	1212,40
379,74	1239,02
379,96	1202,16
380,17	1183,73
380,38	1179,63
380,59	1163,25
380,81	1265,64
381,02	1142,77
381,23	1245,16
381,45	1079,28
381,66	1157,10
381,87	1187,82
382,09	1196,01
382,30	1091,57
382,51	1187,82
382,73	1243,12
382,94	1157,10
383,15	1193,97
383,37	1212,40
383,58	1177,58
383,79	1230,83
384,00	1179,63
384,22	1142,77
384,43	1187,82
384,64	1236,97
384,86	1279,98
385,07	1132,53
385,28	1185,77
385,50	1175,53
385,71	1239,02
385,92	1191,92
386,13	1191,92
386,35	1146,86
386,56	1304,56
386,77	1181,68
386,99	1134,57
387,20	1196,01
387,41	1144,81
387,63	1198,06
387,84	1200,11
388,05	1177,58
388,26	1212,40
388,48	1157,10
388,69	1161,20
388,90	1214,45
389,11	1083,38
389,33	1153,01
389,54	1216,49
389,75	1138,67
389,97	1128,43
390,18	1062,90
390,39	1097,71
390,60	1165,29
390,82	1144,81
391,03	1241,07
391,24	1169,39
391,45	1200,11
391,67	1183,73
391,88	1146,86
392,09	1191,92
392,31	1155,05
392,52	1187,82
392,73	1183,73
392,94	1208,30
393,16	1120,24
393,37	1175,53
393,58	1282,03
393,79	1243,12
394,01	1157,10
394,22	1187,82
394,43	1216,49
394,64	1128,43
394,86	1179,63
395,07	1140,72
395,28	1243,12
395,49	1163,25
395,71	1193,97
395,92	1167,34
396,13	1251,31
396,34	1132,53
396,56	1187,82
396,77	1091,57
396,98	1269,74
397,19	1206,25
397,40	1138,67
397,62	1155,05
397,83	1226,73
398,04	1181,68
398,25	1224,69
398,47	1208,30
398,68	1191,92
398,89	1236,97
399,10	1181,68
399,32	1265,64
399,53	1155,05
399,74	1177,58
399,95	1175,53
400,16	1177,58
400,38	1212,40
400,59	1200,11
400,80	1226,73
401,01	1273,84
401,22	1245,16
401,44	1230,83
401,65	1189,87
401,86	1232,88
402,07	1239,02
402,29	1191,92
402,50	1241,07
402,71	1226,73
402,92	1191,92
403,13	1187,82
403,35	1120,24
403,56	1224,69
403,77	1187,82
403,98	1255,40
404,19	1204,21
404,41	1298,41
404,62	1378,28
404,83	1527,78
405,04	2146,27
405,25	3291,09
405,47	4556,73
405,68	5320,62
405,89	5392,30
406,10	5070,77
406,31	3911,62
406,52	2889,68
406,74	2281,44
406,95	1753,06
407,16	1290,22
407,37	1261,55
407,58	1179,63
407,80	1222,64
408,01	1355,76
408,22	1239,02
408,43	1464,30
408,64	1490,92
408,85	1466,35
409,07	1474,54
409,28	1456,11
409,49	1392,62
409,70	1363,95
409,91	1296,36
410,12	1228,78
410,34	1200,11
410,55	1138,67
410,76	1146,86
410,97	1277,93
411,18	1228,78
411,39	1228,78
411,61	1187,82
411,82	1204,21
412,03	1150,96
412,24	1183,73
412,45	1277,93
412,66	1185,77
412,87	1222,64
413,09	1247,21
413,30	1185,77
413,51	1257,45
413,72	1212,40
413,93	1208,30
414,14	1144,81
414,35	1167,34
414,57	1134,57
414,78	1279,98
414,99	1212,40
415,20	1206,25
415,41	1189,87
415,62	1155,05
415,83	1196,01
416,05	1148,91
416,26	1210,35
416,47	1251,31
416,68	1228,78
416,89	1253,36
417,10	1273,84
417,31	1183,73
417,52	1155,05
417,74	1142,77
417,95	1181,68
418,16	1193,97
418,37	1167,34
418,58	1208,30
418,79	1179,63
419,00	1212,40
419,21	1196,01
419,43	1218,54
419,64	1183,73
419,85	1220,59
420,06	1165,29
420,27	1236,97
420,48	1126,38
420,69	1200,11
420,90	1163,25
421,11	1216,49
421,33	1171,44
421,54	1243,12
421,75	1236,97
421,96	1251,31
422,17	1224,69
422,38	1204,21
422,59	1161,20
422,80	1212,40
423,01	1155,05
423,22	1224,69
423,43	1214,45
423,65	1140,72
423,86	1298,41
424,07	1294,32
424,28	1253,36
424,49	1132,53
424,70	1159,15
424,91	1163,25
425,12	1249,26
425,33	1161,20
425,54	1181,68
425,75	1214,45
425,96	1181,68
426,18	1273,84
426,39	1222,64
426,60	1196,01
426,81	1294,32
427,02	1148,91
427,23	1247,21
427,44	1196,01
427,65	1112,05
427,86	1210,35
428,07	1241,07
428,28	1163,25
428,49	1128,43
428,70	1153,01
428,91	1245,16
429,13	1132,53
429,34	1193,97
429,55	1210,35
429,76	1206,25
429,97	1325,04
430,18	1163,25
430,39	1183,73
430,60	1204,21
430,81	1261,55
431,02	1220,59
431,23	1236,97
431,44	1224,69
431,65	1251,31
431,86	1128,43
432,07	1396,71
432,28	1171,44
432,49	1234,93
432,70	1273,84
432,91	1243,12
433,12	1277,93
433,33	1189,87
433,55	1265,64
433,76	1312,75
433,97	1247,21
434,18	1286,12
434,39	1214,45
434,60	1390,57
434,81	1349,61
435,02	1386,47
435,23	1480,68
435,44	1572,84
435,65	1660,90
435,86	2045,92
436,07	3045,33
436,28	4472,76
436,49	7899,02
436,70	10448,74
436,91	12040,01
437,12	12590,91
437,33	12119,88
437,54	9678,70
437,75	6586,27
437,96	4900,79
438,17	3233,74
438,38	2011,11
438,59	1578,98
438,80	1400,81
439,01	1271,79
439,22	1310,70
439,43	1378,28
439,64	1263,60
439,85	1226,73
440,06	1226,73
440,27	1269,74
440,48	1263,60
440,69	1202,16
440,90	1290,22
441,11	1155,05
441,32	1232,88
441,53	1253,36
441,74	1212,40
441,95	1224,69
442,16	1249,26
442,37	1308,65
442,58	1296,36
442,79	1236,97
443,00	1314,80
443,21	1191,92
443,42	1306,60
443,63	1200,11
443,84	1202,16
444,05	1253,36
444,26	1247,21
444,47	1191,92
444,68	1255,40
444,89	1259,50
445,10	1193,97
445,31	1212,40
445,52	1247,21
445,73	1226,73
445,94	1198,06
446,14	1269,74
446,35	1220,59
446,56	1253,36
446,77	1179,63
446,98	1292,27
447,19	1183,73
447,40	1239,02
447,61	1138,67
447,82	1261,55
448,03	1306,60
448,24	1224,69
448,45	1198,06
448,66	1208,30
448,87	1267,69
449,08	1277,93
449,29	1226,73
449,50	1232,88
449,71	1245,16
449,92	1222,64
450,13	1286,12
450,33	1275,88
450,54	1193,97
450,75	1224,69
450,96	1189,87
451,17	1177,58
451,38	1202,16
451,59	1159,15
451,80	1220,59
452,01	1159,15
452,22	1216,49
452,43	1191,92
452,64	1261,55
452,85	1146,86
453,06	1224,69
453,27	1243,12
453,47	1226,73
453,68	1265,64
453,89	1150,96
454,10	1110,00
454,31	1310,70
454,52	1099,76
454,73	1228,78
454,94	1191,92
455,15	1241,07
455,36	1150,96
455,57	1171,44
455,78	1484,78
455,98	1183,73
456,19	1273,84
456,40	1179,63
456,61	1157,10
456,82	1255,40
457,03	1159,15
457,24	1241,07
457,45	1257,45
457,66	1179,63
457,87	1236,97
458,07	1236,97
458,28	1122,29
458,49	1208,30
458,70	1196,01
458,91	1198,06
459,12	1218,54
459,33	1302,51
459,54	1239,02
459,75	1171,44
459,95	1183,73
460,16	1103,86
460,37	1239,02
460,58	1230,83
460,79	1163,25
461,00	1226,73
461,21	1208,30
461,42	1144,81
461,62	1257,45
461,83	1230,83
462,04	1224,69
462,25	1216,49
462,46	1290,22
462,67	1163,25
462,88	1212,40
463,09	1290,22
463,29	1200,11
463,50	1216,49
463,71	1167,34
463,92	1294,32
464,13	1269,74
464,34	1148,91
464,55	1202,16
464,75	1226,73
464,96	1224,69
465,17	1189,87
465,38	1173,49
465,59	1216,49
465,80	1159,15
466,01	1196,01
466,21	1300,46
466,42	1554,41
466,63	1206,25
466,84	1312,75
467,05	1212,40
467,26	1200,11
467,46	1183,73
467,67	1236,97
467,88	1404,91
468,09	1603,56
468,30	1802,21
468,51	2228,19
468,71	2394,08
468,92	2656,22
469,13	2973,65
469,34	3190,74
469,55	3317,71
469,76	2994,13
469,96	2693,08
470,17	2359,26
470,38	1779,68
470,59	1476,59
470,80	1230,83
471,01	1193,97
471,21	1310,70
471,42	1286,12
471,63	1269,74
471,84	1179,63
472,05	1220,59
472,25	1234,93
472,46	1206,25
472,67	1261,55
472,88	1261,55
473,09	1322,99
473,29	1314,80
473,50	1228,78
473,71	1249,26
473,92	1220,59
474,13	1273,84
474,34	1220,59
474,54	1214,45
474,75	1181,68
474,96	1249,26
475,17	1196,01
475,37	1228,78
475,58	1253,36
475,79	1267,69
476,00	1564,65
476,21	1222,64
476,41	1236,97
476,62	1157,10
476,83	1214,45
477,04	1304,56
477,25	1241,07
477,45	1228,78
477,66	1228,78
477,87	1181,68
478,08	1187,82
478,28	1288,17
478,49	1259,50
478,70	1271,79
478,91	1355,76
479,12	1277,93
479,32	1384,43
479,53	1263,60
479,74	1318,89
479,95	1644,52
480,15	1974,24
480,36	2748,37
480,57	3973,06
480,78	5187,50
480,98	6289,31
481,19	6692,76
481,40	7329,68
481,61	8376,19
481,81	8021,89
482,02	7630,73
482,23	7235,47
482,44	6094,76
482,64	4310,97
482,85	2871,25
483,06	1953,76
483,27	1609,70
483,47	1490,92
483,68	1366,00
483,89	1415,15
484,10	1345,52
484,30	1259,50
484,51	1273,84
484,72	1257,45
484,93	1331,18
485,13	1310,70
485,34	1304,56
485,55	1253,36
485,76	1286,12
485,96	1255,40
486,17	1273,84
486,38	1216,49
486,59	1296,36
486,79	1335,28
487,00	1216,49
487,21	1286,12
487,41	1294,32
487,62	1417,19
487,83	1282,03
488,04	1253,36
488,24	1304,56
488,45	1220,59
488,66	1302,51
488,86	1374,19
489,07	1259,50
489,28	1191,92
489,49	1234,93
489,69	1236,97
489,90	1232,88
490,11	1249,26
490,31	1191,92
490,52	1251,31
490,73	1290,22
490,93	1363,95
491,14	1322,99
491,35	1339,37
491,56	1230,83
491,76	1417,19
491,97	1402,86
492,18	1331,18
492,38	1435,63
492,59	1386,47
492,80	1402,86
493,00	1507,30
493,21	1423,34
493,42	1466,35
493,62	1415,15
493,83	1441,77
494,04	1353,71
494,25	1384,43
494,45	1257,45
494,66	1282,03
494,87	1247,21
495,07	1345,52
495,28	1279,98
495,49	1288,17
495,69	1214,45
495,90	1265,64
496,11	1288,17
496,31	1296,36
496,52	1226,73
496,73	1300,46
496,93	1337,32
497,14	1300,46
497,35	1327,08
497,55	1236,97
497,76	1290,22
497,97	1316,84
498,17	1322,99
498,38	1302,51
498,59	1286,12
498,79	1284,08
499,00	1300,46
499,20	1220,59
499,41	1212,40
499,62	1208,30
499,82	1193,97
500,03	1263,60
500,24	1206,25
500,44	1236,97
500,65	1290,22
500,86	1298,41
501,06	1265,64
501,27	1296,36
501,48	1261,55
501,68	1296,36
501,89	1265,64
502,09	1292,27
502,30	1196,01
502,51	1290,22
502,71	1271,79
502,92	1335,28
503,13	1218,54
503,33	1226,73
503,54	1265,64
503,74	1310,70
503,95	1509,35
504,16	1327,08
504,36	1234,93
504,57	1232,88
504,78	1267,69
504,98	1312,75
505,19	1243,12
505,39	1292,27
505,60	1292,27
505,81	1306,60
506,01	1388,52
506,22	1314,80
506,42	1312,75
506,63	1286,12
506,84	1339,37
507,04	1290,22
507,25	1329,13
507,45	1302,51
507,66	1294,32
507,87	1288,17
508,07	1318,89
508,28	1488,87
508,48	2338,78
508,69	2936,79
508,90	4505,53
509,10	6330,27
509,31	8458,11
509,51	10579,81
509,72	12312,39
509,93	13811,50
510,13	15421,20
510,34	15187,74
510,54	13993,77
510,75	13035,32
510,95	11460,43
511,16	8560,51
511,37	5652,39
511,57	3672,01
511,78	2551,77
511,98	2138,08
512,19	1785,83
512,39	1552,36
512,60	1488,87
512,81	1421,29
513,01	1376,24
513,22	1394,67
513,42	1370,09
513,63	1415,15
513,83	1368,04
514,04	1302,51
514,25	1345,52
514,45	1417,19
514,66	1331,18
514,86	1294,32
515,07	1343,47
515,27	1347,56
515,48	1310,70
515,68	1312,75
515,89	1261,55
516,09	1290,22
516,30	1376,24
516,51	1277,93
516,71	1318,89
516,92	1234,93
517,12	1339,37
517,33	1343,47
517,53	1349,61
517,74	1290,22
517,94	1269,74
518,15	1304,56
518,35	1392,62
518,56	1286,12
518,76	1290,22
518,97	1294,32
519,18	1267,69
519,38	1218,54
519,59	1288,17
519,79	1353,71
520,00	1236,97
520,20	1286,12
520,41	1253,36
520,61	1261,55
520,82	1193,97
521,02	1228,78
521,23	1277,93
521,43	1271,79
521,64	1286,12
521,84	1290,22
522,05	1286,12
522,25	1193,97
522,46	1261,55
522,66	1179,63
522,87	1157,10
523,07	1263,60
523,28	1226,73
523,48	1222,64
523,69	1275,88
523,89	1343,47
524,10	1220,59
524,30	1253,36
524,51	1257,45
524,71	1189,87
524,92	1167,34
525,12	1282,03
525,33	1232,88
525,53	1198,06
525,74	1193,97
525,94	1302,51
526,15	1294,32
526,35	1318,89
526,56	1239,02
526,76	1212,40
526,97	1216,49
527,17	1345,52
527,38	1269,74
527,58	1296,36
527,78	1245,16
527,99	1263,60
528,19	1216,49
528,40	1306,60
528,60	1302,51
528,81	1220,59
529,01	1216,49
529,22	1257,45
529,42	1245,16
529,63	1294,32
529,83	1273,84
530,04	1220,59
530,24	1265,64
530,44	1284,08
530,65	1318,89
530,85	1257,45
531,06	1320,94
531,26	1216,49
531,47	1228,78
531,67	1200,11
531,88	1277,93
532,08	1198,06
532,29	1292,27
532,49	1329,13
532,69	1290,22
532,90	1300,46
533,10	1298,41
533,31	1294,32
533,51	1339,37
533,72	1314,80
533,92	1300,46
534,12	1271,79
534,33	1310,70
534,53	1265,64
534,74	1265,64
534,94	1359,85
535,15	1296,36
535,35	1277,93
535,55	1230,83
535,76	1335,28
535,96	1357,80
536,17	1296,36
536,37	1306,60
536,58	1316,84
536,78	1310,70
536,98	1388,52
537,19	1388,52
537,39	1329,13
537,60	1277,93
537,80	1302,51
538,00	1269,74
538,21	1327,08
538,41	1361,90
538,62	1345,52
538,82	1335,28
539,02	1296,36
539,23	1345,52
539,43	1327,08
539,64	1335,28
539,84	1380,33
540,04	1314,80
540,25	1359,85
540,45	1361,90
540,66	1349,61
540,86	1396,71
541,06	1355,76
541,27	1351,66
541,47	1327,08
541,68	1353,71
541,88	1382,38
542,08	1361,90
542,29	1363,95
542,49	1376,24
542,69	1327,08
542,90	1433,58
543,10	1439,72
543,31	1404,91
543,51	1425,39
543,71	1468,39
543,92	1464,30
544,12	1495,02
544,32	1482,73
544,53	1509,35
544,73	1595,37
544,93	1517,54
545,14	1538,02
545,34	1667,05
545,55	2011,11
545,75	3489,74
545,95	6373,28
546,16	10456,93
546,36	16146,19
546,56	21706,42
546,77	28714,57
546,97	37264,84
547,17	44782,93
547,38	51602,67
547,58	58561,67
547,78	59104,38
547,99	56822,94
548,19	51027,19
548,39	42534,26
548,60	30287,41
548,80	18265,83
549,00	10557,28
549,21	6586,27
549,41	4337,60
549,61	3268,56
549,82	2607,06
550,02	2394,08
550,22	2201,57
550,43	1884,13
550,63	1912,80
550,83	1855,46
551,04	1710,05
551,24	1720,29
551,44	1667,05
551,65	1644,52
551,85	1617,90
552,05	1548,26
552,26	1497,07
552,46	1474,54
552,66	1515,50
552,87	1490,92
553,07	1460,20
553,27	1556,46
553,47	1447,91
553,68	1404,91
553,88	1411,05
554,08	1466,35
554,29	1417,19
554,49	1279,98
554,69	1402,86
554,90	1404,91
555,10	1366,00
555,30	1404,91
555,50	1320,94
555,71	1437,67
555,91	1343,47
556,11	1400,81
556,32	1382,38
556,52	1368,04
556,72	1304,56
556,92	1359,85
557,13	1300,46
557,33	1314,80
557,53	1325,04
557,74	1316,84
557,94	1322,99
558,14	1327,08
558,34	1353,71
558,55	1374,19
558,75	1347,56
558,95	1290,22
559,16	1257,45
559,36	1343,47
559,56	1306,60
559,76	1236,97
559,97	1335,28
560,17	1351,66
560,37	1294,32
560,57	1279,98
560,78	1329,13
560,98	1296,36
561,18	1290,22
561,38	1298,41
561,59	1220,59
561,79	1312,75
561,99	1257,45
562,19	1296,36
562,40	1265,64
562,60	1191,92
562,80	1259,50
563,00	1292,27
563,21	1304,56
563,41	1230,83
563,61	1253,36
563,81	1265,64
564,02	1224,69
564,22	1296,36
564,42	1304,56
564,62	1290,22
564,83	1140,72
565,03	1224,69
565,23	1218,54
565,43	1269,74
565,63	1234,93
565,84	1290,22
566,04	1335,28
566,24	1277,93
566,44	1273,84
566,65	1228,78
566,85	1142,77
567,05	1329,13
567,25	1128,43
567,45	1214,45
567,66	1259,50
567,86	1282,03
568,06	1196,01
568,26	1335,28
568,46	1306,60
568,67	1288,17
568,87	1253,36
569,07	1236,97
569,27	1363,95
569,47	1251,31
569,68	1284,08
569,88	1282,03
570,08	1232,88
570,28	1263,60
570,48	1212,40
570,69	1259,50
570,89	1208,30
571,09	1286,12
571,29	1357,80
571,49	1263,60
571,70	1304,56
571,90	1290,22
572,10	1357,80
572,30	1296,36
572,50	1282,03
572,71	1249,26
572,91	1191,92
573,11	1318,89
573,31	1257,45
573,51	1228,78
573,71	1271,79
573,92	1179,63
574,12	1277,93
574,32	1275,88
574,52	1290,22
574,72	1359,85
574,92	1275,88
575,13	1460,20
575,33	1294,32
575,53	1292,27
575,73	1322,99
575,93	1271,79
576,13	1314,80
576,33	1415,15
576,54	1738,73
576,74	2299,87
576,94	2922,45
577,14	3907,52
577,34	4872,12
577,54	5801,90
577,75	7204,75
577,95	8546,17
578,15	10102,63
578,35	11702,09
578,55	12339,01
578,75	12592,96
578,95	12793,66
579,16	12234,57
579,36	10782,56
579,56	9604,97
579,76	9056,12
579,96	9013,11
580,16	10121,06
580,36	11632,46
580,56	11964,23
580,77	12371,78
580,97	11702,09
581,17	10573,66
581,37	8843,13
581,57	6399,90
581,77	4382,65
581,97	3129,30
582,17	2320,35
582,38	2025,44
582,58	1728,49
582,78	1572,84
582,98	1495,02
583,18	1353,71
583,38	1460,20
583,58	1363,95
583,78	1404,91
583,98	1411,05
584,18	1359,85
584,39	1273,84
584,59	1286,12
584,79	1279,98
584,99	1277,93
585,19	1265,64
585,39	1241,07
585,59	1228,78
585,79	1306,60
585,99	1368,04
586,19	1226,73
586,39	1259,50
586,60	1345,52
586,80	1261,55
587,00	1257,45
587,20	1327,08
587,40	1216,49
587,60	1271,79
587,80	1318,89
588,00	1261,55
588,20	1216,49
588,40	1243,12
588,60	1214,45
588,80	1198,06
589,00	1247,21
589,21	1220,59
589,41	1314,80
589,61	1310,70
589,81	1255,40
590,01	1224,69
590,21	1261,55
590,41	1234,93
590,61	1187,82
590,81	1214,45
591,01	1191,92
591,21	1228,78
591,41	1239,02
591,61	1241,07
591,81	1198,06
592,01	1187,82
592,21	1179,63
592,41	1130,48
592,61	1210,35
592,82	1130,48
593,02	1226,73
593,22	1169,39
593,42	1161,20
593,62	1296,36
593,82	1214,45
594,02	1165,29
594,22	1157,10
594,42	1218,54
594,62	1198,06
594,82	1148,91
595,02	1284,08
595,22	1241,07
595,42	1200,11
595,62	1198,06
595,82	1282,03
596,02	1220,59
596,22	1226,73
596,42	1198,06
596,62	1212,40
596,82	1191,92
597,02	1183,73
597,22	1206,25
597,42	1165,29
597,62	1124,33
597,82	1245,16
598,02	1169,39
598,22	1200,11
598,42	1234,93
598,62	1132,53
598,82	1253,36
599,02	1230,83
599,22	1138,67
599,42	1257,45
599,62	1208,30
599,82	1200,11
600,02	1212,40
600,22	1200,11
600,42	1177,58
600,62	1183,73
600,82	1265,64
601,02	1253,36
601,22	1239,02
601,42	1091,57
601,62	1193,97
601,82	1193,97
602,02	1183,73
602,22	1169,39
602,42	1218,54
602,62	1279,98
602,82	1146,86
603,02	1179,63
603,22	1200,11
603,42	1200,11
603,62	1216,49
603,82	1165,29
604,02	1146,86
604,22	1136,62
604,42	1110,00
604,62	1200,11
604,82	1181,68
605,02	1142,77
605,21	1183,73
605,41	1093,62
605,61	1148,91
605,81	1181,68
606,01	1214,45
606,21	1271,79
606,41	1239,02
606,61	1167,34
606,81	1130,48
607,01	1179,63
607,21	1150,96
607,41	1056,75
607,61	1116,14
607,81	1206,25
608,01	1189,87
608,21	1155,05
608,41	1218,54
608,61	1220,59
608,80	1171,44
609,00	1093,62
609,20	1245,16
609,40	1193,97
609,60	1218,54
609,80	1155,05
610,00	1146,86
610,20	1175,53
610,40	1091,57
610,60	1222,64
610,80	1124,33
611,00	1173,49
611,20	1220,59
611,39	1210,35
611,59	1224,69
611,79	1343,47
611,99	1226,73
612,19	1210,35
612,39	1150,96
612,59	1183,73
612,79	1239,02
612,99	1122,29
613,19	1228,78
613,38	1165,29
613,58	1155,05
613,78	1228,78
613,98	1187,82
614,18	1210,35
614,38	1175,53
614,58	1165,29
614,78	1226,73
614,98	1179,63
615,18	1251,31
615,37	1146,86
615,57	1222,64
615,77	1165,29
615,97	1200,11
616,17	1224,69
616,37	1185,77
616,57	1243,12
616,77	1187,82
616,96	1171,44
617,16	1198,06
617,36	1130,48
617,56	1183,73
617,76	1193,97
617,96	1222,64
618,16	1118,19
618,35	1214,45
618,55	1169,39
618,75	1163,25
618,95	1206,25
619,15	1171,44
619,35	1148,91
619,55	1179,63
619,75	1183,73
619,94	1159,15
620,14	1189,87
620,34	1208,30
620,54	1148,91
620,74	1179,63
620,94	1134,57
621,13	1157,10
621,33	1159,15
621,53	1214,45
621,73	1171,44
621,93	1175,53
622,13	1230,83
622,32	1200,11
622,52	1249,26
622,72	1191,92
622,92	1155,05
623,12	1163,25
623,32	1161,20
623,51	1179,63
623,71	1169,39
623,91	1204,21
624,11	1218,54
624,31	1261,55
624,51	1290,22
624,70	1208,30
624,90	1271,79
625,10	1179,63
625,30	1243,12
625,50	1216,49
625,69	1208,30
625,89	1228,78
626,09	1191,92
626,29	1251,31
626,49	1126,38
626,68	1204,21
626,88	1167,34
627,08	1126,38
627,28	1144,81
627,48	1120,24
627,67	1275,88
627,87	1179,63
628,07	1257,45
628,27	1169,39
628,47	1181,68
628,66	1179,63
628,86	1277,93
629,06	1245,16
629,26	1210,35
629,46	1206,25
629,65	1204,21
629,85	1185,77
630,05	1159,15
630,25	1267,69
630,45	1134,57
630,64	1126,38
630,84	1183,73
631,04	1183,73
631,24	1198,06
631,43	1169,39
631,63	1148,91
631,83	1093,62
632,03	1220,59
632,22	1288,17
632,42	1320,94
632,62	1226,73
632,82	1222,64
633,01	1200,11
633,21	1110,00
633,41	1150,96
633,61	1175,53
633,81	1140,72
634,00	1234,93
634,20	1114,10
634,40	1167,34
634,60	1155,05
634,79	1136,62
634,99	1210,35
635,19	1153,01
635,38	1196,01
635,58	1179,63
635,78	1142,77
635,98	1177,58
636,17	1179,63
636,37	1302,51
636,57	1196,01
636,77	1148,91
636,96	1206,25
637,16	1134,57
637,36	1179,63
637,56	1193,97
637,75	1187,82
637,95	1179,63
638,15	1169,39
638,34	1134,57
638,54	1169,39
638,74	1171,44
638,94	1163,25
639,13	1206,25
639,33	1251,31
639,53	1257,45
639,72	1171,44
639,92	1107,95
640,12	1253,36
640,32	1171,44
640,51	1150,96
640,71	1187,82
640,91	1120,24
641,10	1222,64
641,30	1183,73
641,50	1220,59
641,69	1132,53
641,89	1148,91
642,09	1196,01
642,29	1212,40
642,48	1222,64
642,68	1251,31
642,88	1239,02
643,07	1177,58
643,27	1232,88
643,47	1343,47
643,66	1511,40
643,86	1781,73
644,06	1877,99
644,25	1961,95
644,45	2138,08
644,65	2340,83
644,84	2717,65
645,04	3053,52
645,24	3284,94
645,43	3166,16
645,63	3315,66
645,83	3373,00
646,02	3145,68
646,22	2727,89
646,42	2342,88
646,61	1855,46
646,81	1554,41
647,01	1376,24
647,20	1368,04
647,40	1245,16
647,60	1245,16
647,79	1226,73
647,99	1236,97
648,19	1263,60
648,38	1232,88
648,58	1249,26
648,78	1171,44
648,97	1212,40
649,17	1171,44
649,36	1177,58
649,56	1173,49
649,76	1103,86
649,95	1196,01
650,15	1171,44
650,35	1200,11
650,54	1241,07
650,74	1204,21
650,93	1181,68
651,13	1179,63
651,33	1185,77
651,52	1196,01
651,72	1206,25
651,92	1187,82
652,11	1179,63
652,31	1206,25
652,50	1146,86
652,70	1243,12
652,90	1136,62
653,09	1171,44
653,29	1226,73
653,49	1189,87
653,68	1183,73
653,88	1128,43
654,07	1126,38
654,27	1204,21
654,47	1191,92
654,66	1183,73
654,86	1144,81
655,05	1202,16
655,25	1187,82
655,45	1232,88
655,64	1245,16
655,84	1245,16
656,03	1163,25
656,23	1142,77
656,42	1155,05
656,62	1155,05
656,82	1181,68
657,01	1189,87
657,21	1198,06
657,40	1187,82
657,60	1200,11
657,80	1138,67
657,99	1163,25
658,19	1163,25
658,38	1167,34
658,58	1136,62
658,77	1161,20
658,97	1155,05
659,17	1212,40
659,36	1157,10
659,56	1179,63
659,75	1228,78
659,95	1173,49
660,14	1230,83
660,34	1155,05
660,53	1114,10
660,73	1177,58
660,93	1173,49
661,12	1146,86
661,32	1216,49
661,51	1214,45
661,71	1177,58
661,90	1150,96
662,10	1105,90
662,29	1140,72
662,49	1105,90
662,68	1204,21
662,88	1136,62
663,08	1155,05
663,27	1155,05
663,47	1159,15
663,66	1228,78
663,86	1150,96
664,05	1167,34
664,25	1236,97
664,44	1085,42
664,64	1249,26
664,83	1144,81
665,03	1202,16
665,22	1193,97
665,42	1089,52
665,61	1193,97
665,81	1126,38
666,00	1179,63
666,20	1163,25
666,39	1159,15
666,59	1175,53
666,78	1179,63
666,98	1183,73
667,17	1196,01
667,37	1228,78
667,56	1161,20
667,76	1265,64
667,95	1208,30
668,15	1112,05
668,34	1200,11
668,54	1181,68
668,73	1132,53
668,93	1157,10
669,12	1208,30
669,32	1249,26
669,51	1187,82
669,71	1163,25
669,90	1159,15
670,10	1173,49
670,29	1204,21
670,49	1097,71
670,68	1177,58
670,88	1187,82
671,07	1157,10
671,27	1179,63
671,46	1275,88
671,66	1204,21
671,85	1155,05
672,05	1124,33
672,24	1169,39
672,44	1163,25
672,63	1128,43
672,83	1157,10
673,02	1177,58
673,21	1144,81
673,41	1126,38
673,60	1253,36
673,80	1126,38
673,99	1232,88
674,19	1142,77
674,38	1148,91
674,58	1220,59
674,77	1218,54
674,97	1122,29
675,16	1169,39
675,35	1216,49
675,55	1181,68
675,74	1214,45
675,94	1146,86
676,13	1155,05
676,33	1169,39
676,52	1196,01
676,71	1181,68
676,91	1214,45
677,10	1226,73
677,30	1142,77
677,49	1173,49
677,69	1142,77
677,88	1169,39
678,07	1118,19
678,27	1183,73
678,46	1181,68
678,66	1153,01
678,85	1171,44
679,05	1171,44
679,24	1245,16
679,43	1159,15
679,63	1261,55
679,82	1062,90
680,02	1193,97
680,21	1177,58
680,40	1173,49
680,60	1136,62
680,79	1146,86
680,99	1196,01
681,18	1179,63
681,37	1124,33
681,57	1105,90
681,76	1224,69
681,96	1101,81
682,15	1187,82
682,34	1220,59
682,54	1206,25
682,73	1185,77
682,93	1142,77
683,12	1173,49
683,31	1114,10
683,51	1138,67
683,70	1107,95
683,89	1220,59
684,09	1136,62
684,28	1189,87
684,48	1257,45
684,67	1196,01
684,86	1077,23
685,06	1198,06
685,25	1206,25
685,44	1144,81
685,64	1126,38
685,83	1241,07
686,03	1183,73
686,22	1200,11
686,41	1077,23
686,61	1069,04
686,80	1191,92
686,99	1148,91
687,19	1138,67
687,38	1169,39
687,57	1198,06
687,77	1167,34
687,96	1167,34
688,15	1169,39
688,35	1134,57
688,54	1116,14
688,73	1196,01
688,93	1241,07
689,12	1153,01
689,31	1130,48
689,51	1210,35
689,70	1138,67
689,89	1173,49
690,09	1165,29
690,28	1116,14
690,47	1171,44
690,67	1230,83
690,86	1214,45
691,05	1216,49
691,25	1222,64
691,44	1222,64
691,63	1236,97
691,83	1261,55
692,02	1212,40
692,21	1359,85
692,41	1296,36
692,60	1318,89
692,79	1288,17
692,99	1265,64
693,18	1312,75
693,37	1206,25
693,56	1300,46
693,76	1153,01
693,95	1267,69
694,14	1282,03
694,34	1253,36
694,53	1181,68
694,72	1200,11
694,92	1144,81
695,11	1159,15
695,30	1142,77
695,49	1202,16
695,69	1181,68
695,88	1118,19
696,07	1245,16
696,27	1187,82
696,46	1099,76
696,65	1218,54
696,84	1159,15
697,04	1132,53
697,23	1118,19
697,42	1179,63
697,61	1134,57
697,81	1181,68
698,00	1236,97
698,19	1208,30
698,39	1239,02
698,58	1097,71
698,77	1167,34
698,96	1210,35
699,16	1214,45
699,35	1230,83
699,54	1191,92
699,73	1187,82
699,93	1132,53
700,12	1187,82
700,31	1247,21
700,50	1228,78
700,70	1218,54
700,89	1263,60
701,08	1181,68
701,27	1212,40
701,47	1210,35
701,66	1226,73
701,85	1212,40
702,04	1181,68
702,24	1146,86
702,43	1212,40
702,62	1214,45
702,81	1196,01
703,00	1150,96
703,20	1181,68
703,39	1206,25
703,58	1208,30
703,77	1165,29
703,97	1187,82
704,16	1136,62
704,35	1099,76
704,54	1097,71
704,73	1187,82
704,93	1167,34
705,12	1187,82
705,31	1167,34
705,50	1284,08
705,69	1105,90
705,89	1206,25
706,08	1261,55
706,27	1142,77
706,46	1171,44
706,65	1155,05
706,85	1173,49
707,04	1105,90
707,23	1126,38
707,42	1216,49
707,61	1222,64
707,81	1175,53
708,00	1140,72
708,19	1187,82
708,38	1157,10
708,57	1236,97
708,77	1148,91
708,96	1155,05
709,15	1216,49
709,34	1173,49
709,53	1230,83
709,72	1187,82
709,92	1261,55
710,11	1241,07
710,30	1288,17
710,49	1179,63
710,68	1316,84
710,87	1150,96
711,07	1163,25
711,26	1236,97
711,45	1112,05
711,64	1196,01
711,83	1222,64
712,02	1206,25
712,22	1153,01
712,41	1228,78
712,60	1169,39
712,79	1255,40
712,98	1142,77
713,17	1163,25
713,37	1210,35
713,56	1232,88
713,75	1196,01
713,94	1179,63
714,13	1218,54
714,32	1163,25
714,51	1220,59
714,70	1105,90
714,90	1185,77
715,09	1165,29
715,28	1171,44
715,47	1200,11
715,66	1177,58
715,85	1208,30
716,04	1218,54
716,24	1130,48
716,43	1140,72
716,62	1204,21
716,81	1226,73
717,00	1118,19
717,19	1181,68
717,38	1118,19
717,57	1099,76
717,76	1142,77
717,96	1079,28
718,15	1183,73
718,34	1126,38
718,53	1196,01
718,72	1198,06
718,91	1118,19
719,10	1183,73
719,29	1179,63
719,48	1153,01
719,67	1138,67
719,87	1183,73
720,06	1200,11
720,25	1163,25
720,44	1142,77
720,63	1161,20
720,82	1153,01
721,01	1161,20
721,20	1171,44
721,39	1255,40
721,58	1175,53
721,77	1142,77
721,96	1144,81
722,16	1105,90
722,35	1150,96
722,54	1130,48
722,73	1185,77
722,92	1161,20
723,11	1183,73
723,30	1220,59
723,49	1142,77
723,68	1193,97
723,87	1153,01
724,06	1118,19
724,25	1144,81
724,44	1140,72
724,63	1134,57
724,82	1265,64
725,02	1155,05
725,21	1103,86
725,40	1126,38
725,59	1142,77
725,78	1187,82
725,97	1185,77
726,16	1165,29
726,35	1155,05
726,54	1265,64
726,73	1142,77
726,92	1193,97
727,11	1214,45
727,30	1122,29
727,49	1150,96
727,68	1157,10
727,87	1204,21
728,06	1179,63
728,25	1148,91
728,44	1196,01
728,63	1167,34
728,82	1142,77
729,01	1157,10
729,20	1171,44
729,39	1159,15
729,58	1124,33
729,77	1136,62
729,96	1200,11
730,15	1196,01
730,34	1134,57
730,53	1138,67
730,72	1185,77
730,91	1163,25
731,10	1155,05
731,29	1155,05
731,48	1132,53
731,67	1120,24
731,86	1165,29
732,05	1228,78
732,24	1134,57
732,43	1155,05
732,62	1191,92
732,81	1142,77
733,00	1177,58
733,19	1196,01
733,38	1069,04
733,57	1107,95
733,76	1226,73
733,95	1183,73
734,14	1200,11
734,33	1140,72
734,52	1204,21
734,71	1165,29
734,90	1214,45
735,09	1191,92
735,28	1150,96
735,47	1161,20
735,66	1183,73
735,85	1212,40
736,04	1165,29
736,23	1161,20
736,42	1187,82
736,61	1171,44
736,80	1114,10
736,99	1146,86
737,18	1150,96
737,37	1177,58
737,56	1148,91
737,74	1165,29
737,93	1165,29
738,12	1185,77
738,31	1171,44
738,50	1179,63
738,69	1206,25
738,88	1142,77
739,07	1206,25
739,26	1144,81
739,45	1155,05
739,64	1157,10
739,83	1226,73
740,02	1150,96
740,21	1171,44
740,40	1253,36
740,58	1251,31
740,77	1148,91
740,96	1089,52
741,15	1146,86
741,34	1146,86
741,53	1122,29
741,72	1124,33
741,91	1144,81
742,10	1132,53
742,29	1191,92
742,48	1148,91
742,67	1112,05
742,85	1196,01
743,04	1159,15
743,23	1208,30
743,42	1148,91
743,61	1183,73
743,80	1185,77
743,99	1228,78
744,18	1222,64
744,37	1114,10
744,56	1193,97
744,74	1187,82
744,93	1175,53
745,12	1179,63
745,31	1173,49
745,50	1165,29
745,69	1161,20
745,88	1185,77
746,07	1146,86
746,25	1171,44
746,44	1206,25
746,63	1196,01
746,82	1130,48
747,01	1142,77
747,20	1163,25
747,39	1144,81
747,58	1101,81
747,76	1204,21
747,95	1177,58
748,14	1171,44
748,33	1163,25
748,52	1224,69
748,71	1212,40
748,90	1165,29
749,08	1177,58
749,27	1210,35
749,46	1200,11
749,65	1171,44
749,84	1187,82
750,03	1212,40
750,22	1130,48
750,40	1167,34
750,59	1171,44
750,78	1175,53
750,97	1181,68
751,16	1122,29
751,35	1191,92
751,53	1236,97
751,72	1122,29
751,91	1122,29
752,10	1204,21
752,29	1064,94
752,48	1087,47
752,66	1130,48
752,85	1269,74
753,04	1236,97
753,23	1112,05
753,42	1114,10
753,60	1185,77
753,79	1204,21
753,98	1173,49
754,17	1208,30
754,36	1185,77
754,54	1169,39
754,73	1146,86
754,92	1105,90
755,11	1249,26
755,30	1198,06
755,48	1181,68
755,67	1220,59
755,86	1171,44
756,05	1114,10
756,24	1165,29
756,42	1234,93
756,61	1099,76
756,80	1112,05
756,99	1171,44
757,18	1148,91
757,36	1148,91
757,55	1146,86
757,74	1157,10
757,93	1183,73
758,12	1183,73
758,30	1142,77
758,49	1136,62
758,68	1187,82
758,87	1177,58
759,05	1239,02
759,24	1200,11
759,43	1122,29
759,62	1179,63
759,80	1171,44
759,99	1177,58
760,18	1163,25
760,37	1112,05
760,55	1130,48
760,74	1124,33
760,93	1198,06
761,12	1191,92
761,30	1114,10
761,49	1146,86
761,68	1171,44
761,87	1114,10
762,05	1163,25
762,24	1241,07
762,43	1220,59
762,62	1124,33
762,80	1212,40
762,99	1161,20
763,18	1200,11
763,37	1155,05
763,55	1218,54
763,74	1150,96
763,93	1142,77
764,12	1150,96
764,30	1179,63
764,49	1134,57
764,68	1239,02
764,86	1175,53
765,05	1191,92
765,24	1183,73
765,43	1189,87
765,61	1114,10
765,80	1116,14
765,99	1157,10
766,17	1140,72
766,36	1130,48
766,55	1138,67
766,74	1144,81
766,92	1169,39
767,11	1132,53
767,30	1128,43
767,48	1140,72
767,67	1134,57
767,86	1146,86
768,04	1163,25
768,23	1167,34
768,42	1253,36
768,60	1173,49
768,79	1105,90
768,98	1206,25
769,17	1173,49
769,35	1146,86
769,54	1187,82
769,73	1167,34
769,91	1181,68
770,10	1245,16
770,29	1130,48
770,47	1198,06
770,66	1130,48
770,85	1153,01
771,03	1140,72
771,22	1175,53
771,41	1193,97
771,59	1187,82
771,78	1136,62
771,97	1196,01
772,15	1236,97
772,34	1126,38
772,53	1165,29
772,71	1134,57
772,90	1206,25
773,08	1167,34
773,27	1243,12
773,46	1273,84
773,64	1120,24
773,83	1191,92
774,02	1183,73
774,20	1124,33
774,39	1212,40
774,58	1171,44
774,76	1261,55
774,95	1069,04
775,13	1173,49
775,32	1132,53
775,51	1212,40
775,69	1054,70
775,88	1155,05
776,07	1204,21
776,25	1159,15
776,44	1165,29
776,62	1187,82
776,81	1163,25
777,00	1228,78
777,18	1157,10
777,37	1128,43
777,56	1122,29
777,74	1845,22
777,93	1134,57
778,11	1212,40
778,30	1126,38
778,49	1245,16
778,67	1120,24
778,86	1126,38
779,04	1220,59
779,23	1202,16
779,42	1206,25
779,60	1187,82
779,79	1144,81
779,97	1155,05
780,16	1148,91
780,34	1191,92
780,53	1202,16
780,72	1169,39
780,90	1157,10
781,09	1200,11
781,27	1159,15
781,46	1159,15
781,65	1150,96
781,83	1177,58
782,02	1230,83
782,20	1196,01
782,39	1193,97
782,57	1155,05
782,76	1193,97
782,95	1122,29
783,13	1241,07
783,32	1128,43
783,50	1079,28
783,69	1191,92
783,87	1206,25
784,06	1206,25
784,24	1153,01
784,43	1183,73
784,62	1173,49
784,80	1132,53
784,99	1122,29
785,17	1206,25
785,36	1101,81
785,54	1153,01
785,73	1159,15
785,91	1185,77
786,10	1173,49
786,28	1159,15
786,47	1169,39
786,65	1103,86
786,84	1187,82
787,02	1183,73
787,21	1120,24
787,40	1183,73
787,58	1153,01
787,77	1118,19
787,95	1150,96
788,14	1183,73
788,32	1155,05
788,51	1142,77
788,69	1073,14
788,88	1200,11
789,06	1183,73
789,25	1159,15
789,43	1177,58
789,62	1130,48
789,80	1140,72
789,99	1155,05
790,17	1138,67
790,36	1208,30
790,54	1159,15
790,73	1239,02
790,91	1114,10
791,10	1157,10
791,28	1155,05
791,47	1171,44
791,65	1196,01
791,84	1187,82
792,02	1138,67
792,21	1085,42
792,39	1157,10
792,58	1236,97
792,76	1130,48
792,94	1140,72
793,13	1169,39
793,31	1155,05
793,50	1169,39
793,68	1153,01
793,87	1146,86
794,05	1097,71
794,24	1175,53
794,42	1187,82
794,61	1081,33
794,79	1163,25
794,98	1163,25
795,16	1091,57
795,34	1185,77
795,53	1132,53
795,71	1220,59
795,90	1161,20
796,08	1171,44
796,27	1187,82
796,45	1105,90
796,64	1214,45
796,82	1126,38
797,00	1118,19
797,19	1169,39
797,37	1042,42
797,56	1171,44
797,74	1101,81
797,93	1185,77
798,11	1198,06
798,29	1093,62
798,48	1200,11
798,66	1218,54
798,85	1107,95
799,03	1138,67
799,22	1214,45
799,40	1198,06
799,58	1196,01
799,77	1277,93
799,95	1110,00
800,14	1161,20
800,32	1110,00
800,50	1159,15
800,69	1200,11
800,87	1196,01
801,06	1112,05
801,24	1146,86
801,42	1130,48
801,61	1105,90
801,79	1222,64
801,98	1245,16
802,16	1153,01
802,34	1200,11
802,53	1169,39
802,71	1107,95
802,90	1097,71
803,08	1210,35
803,26	1077,23
803,45	1097,71
803,63	1222,64
803,82	1132,53
804,00	1175,53
804,18	1249,26
804,37	1208,30
804,55	1230,83
804,73	1159,15
804,92	1206,25
805,10	1093,62
805,28	1130,48
805,47	1150,96
805,65	1224,69
805,84	1185,77
806,02	1146,86
806,20	1177,58
806,39	1081,33
806,57	1124,33
806,75	1245,16
806,94	1187,82
807,12	1185,77
807,30	1107,95
807,49	1148,91
807,67	1148,91
807,85	1187,82
808,04	1179,63
808,22	1153,01
808,40	1161,20
808,59	1177,58
808,77	1130,48
808,95	1206,25
809,14	1140,72
809,32	1148,91
809,50	1185,77
809,69	1153,01
809,87	1128,43
810,05	1165,29
810,24	1310,70
810,42	1187,82
810,60	1140,72
810,79	1169,39
810,97	1132,53
811,15	1150,96
811,34	1171,44
811,52	1116,14
811,70	1187,82
811,88	1210,35
812,07	1171,44
812,25	1153,01
812,43	1208,30
812,62	1167,34
812,80	1181,68
812,98	1185,77
813,17	1175,53
813,35	1183,73
813,53	1175,53
813,71	1134,57
813,90	1247,21
814,08	1099,76
814,26	1165,29
814,45	1167,34
814,63	1189,87
814,81	1069,04
814,99	1159,15
815,18	1226,73
815,36	1173,49
815,54	1165,29
815,72	1239,02
815,91	1193,97
816,09	1142,77
816,27	1120,24
816,46	1157,10
816,64	1179,63
816,82	1134,57
817,00	1134,57
817,19	1175,53
817,37	1210,35
817,55	1179,63
817,73	1269,74
817,92	1167,34
818,10	1103,86
818,28	1150,96
818,46	1148,91
818,65	1196,01
818,83	1210,35
819,01	1196,01
819,19	1122,29
819,37	1171,44
819,56	1142,77
819,74	1146,86
819,92	1165,29
820,10	1124,33
820,29	1130,48
820,47	1208,30
820,65	1138,67
820,83	1204,21
821,02	1187,82
821,20	1245,16
821,38	1103,86
821,56	1212,40
821,74	1202,16
821,93	1132,53
822,11	1179,63
822,29	1171,44
822,47	1130,48
822,65	1153,01
822,84	1241,07
823,02	1234,93
823,20	1171,44
823,38	1208,30
823,56	1140,72
823,75	1163,25
823,93	1169,39
824,11	1198,06
824,29	1155,05
824,47	1157,10
824,66	1103,86
824,84	1148,91
825,02	1165,29
825,20	1171,44
825,38	1187,82
825,56	1161,20
825,75	1140,72
825,93	1216,49
826,11	1122,29
826,29	1171,44
826,47	1101,81
826,65	1245,16
826,84	1214,45
827,02	1134,57
827,20	1132,53
827,38	1175,53
827,56	1251,31
827,74	1159,15
827,93	1177,58
828,11	1169,39
828,29	1265,64
828,47	1110,00
828,65	1155,05
828,83	1091,57
829,02	1105,90
829,20	1148,91
829,38	1171,44
829,56	1239,02
829,74	1163,25
829,92	1175,53
830,10	1107,95
830,28	1126,38
830,47	1091,57
830,65	1103,86
830,83	1126,38
831,01	1206,25
831,19	1179,63
831,37	1132,53
831,55	1204,21
831,73	1138,67
831,92	1148,91
832,10	1171,44
832,28	1171,44
832,46	1161,20
832,64	1095,66
832,82	1153,01
833,00	1134,57
833,18	1171,44
833,36	1122,29
833,55	1163,25
833,73	1153,01
833,91	1136,62
834,09	1110,00
834,27	1114,10
834,45	1261,55
834,63	1161,20
834,81	1103,86
834,99	1079,28
835,17	1159,15
835,36	1163,25
835,54	1163,25
835,72	1155,05
835,90	1155,05
836,08	1198,06
836,26	1208,30
836,44	1216,49
836,62	1126,38
836,80	1132,53
836,98	1130,48
837,16	1230,83
837,34	1187,82
837,52	1085,42
837,71	1146,86
837,89	1171,44
838,07	1112,05
838,25	1155,05
838,43	1120,24
838,61	1228,78
838,79	1193,97
838,97	1095,66
839,15	1126,38
839,33	1144,81
839,51	1146,86
839,69	1101,81
839,87	1210,35
840,05	1124,33
840,23	1187,82
840,41	1122,29
840,59	1110,00
840,77	1148,91
840,95	1118,19
841,13	1132,53
841,31	1163,25
841,49	1150,96
841,67	1089,52
841,86	1220,59
842,04	1112,05
842,22	1122,29
842,40	1077,23
842,58	1185,77
842,76	1218,54
842,94	1148,91
843,12	1146,86
843,30	1222,64
843,48	1165,29
843,66	1224,69
843,84	1198,06
844,02	1173,49
844,20	1087,47
844,38	1208,30
844,56	1189,87
844,74	1216,49
844,92	1206,25
845,10	1183,73
845,28	1150,96
845,46	1204,21
845,64	1130,48
845,82	1220,59
846,00	1116,14
846,18	1204,21
846,36	1161,20
846,54	1179,63
846,72	1148,91
846,90	1187,82
847,07	1261,55
847,25	1196,01
847,43	1177,58
847,61	1114,10
847,79	1132,53
847,97	1196,01
848,15	1146,86
848,33	1142,77
848,51	1218,54
848,69	1216,49
848,87	1218,54
849,05	1193,97
849,23	1189,87
849,41	1116,14
849,59	1224,69
849,77	1181,68
849,95	1095,66
850,13	1179,63
850,31	1175,53
850,49	1200,11
850,67	1077,23
850,85	1134,57
851,02	1191,92
851,20	1155,05
851,38	1228,78
851,56	1157,10
851,74	1239,02
851,92	1214,45
852,10	1155,05
852,28	1243,12
852,46	1142,77
852,64	1114,10
852,82	1163,25
853,00	1130,48
853,18	1159,15
853,36	1179,63
853,53	1179,63
853,71	1179,63
853,89	1198,06
854,07	1159,15
854,25	1107,95
854,43	1132,53
854,61	1130,48
854,79	1206,25
854,97	1140,72
855,15	1196,01
855,32	1155,05
855,50	1177,58
855,68	1193,97
855,86	1173,49
856,04	1247,21
856,22	1118,19
856,40	1167,34
856,58	1161,20
856,76	1077,23
856,93	1146,86
857,11	1167,34
857,29	1183,73
857,47	1163,25
857,65	1153,01
857,83	1163,25
858,01	1175,53
858,19	1171,44
858,36	1150,96
858,54	1173,49
858,72	1204,21
858,90	1101,81
859,08	1153,01
859,26	1220,59
859,44	1132,53
859,61	1255,40
859,79	1257,45
859,97	1148,91
860,15	1085,42
860,33	1142,77
860,51	1099,76
860,69	1132,53
860,86	1200,11
861,04	1095,66
861,22	1204,21
861,40	1193,97
861,58	1177,58
861,76	1177,58
861,93	1148,91
862,11	1181,68
862,29	1132,53
862,47	1140,72
862,65	1187,82
862,83	1099,76
863,00	1040,37
863,18	1159,15
863,36	1177,58
863,54	1085,42
863,72	1191,92
863,89	1193,97
864,07	1148,91
864,25	1120,24
864,43	1175,53
864,61	1187,82
864,78	1234,93
864,96	1187,82
865,14	1146,86
865,32	1239,02
865,50	1116,14
865,67	1071,09
865,85	1157,10
866,03	1144,81
866,21	1179,63
866,39	1112,05
866,56	1204,21
866,74	1175,53
866,92	1122,29
867,10	1110,00
867,28	1146,86
867,45	1095,66
867,63	1138,67
867,81	1155,05
867,99	1185,77
868,16	1167,34
868,34	1177,58
868,52	1136,62
868,70	1167,34
868,87	1079,28
869,05	1124,33
869,23	1099,76
869,41	1171,44
869,59	1159,15
869,76	1177,58
869,94	1204,21
870,12	1179,63
870,30	1161,20
870,47	1114,10
870,65	1112,05
870,83	1187,82
871,01	1183,73
871,18	1169,39
871,36	1071,09
871,54	1140,72
871,71	1112,05
871,89	1132,53
872,07	1112,05
872,25	1210,35
872,42	1157,10
872,60	1173,49
872,78	1097,71
872,96	1140,72
873,13	1134,57
873,31	1105,90
873,49	1175,53
873,66	1204,21
873,84	1198,06
874,02	1202,16
874,20	1159,15
874,37	1144,81
874,55	1236,97
874,73	1153,01
874,90	1191,92
875,08	1128,43
875,26	1159,15
875,44	1198,06
875,61	1163,25
875,79	1050,61
875,97	1114,10
876,14	1214,45
876,32	1155,05
876,50	1200,11
876,67	1130,48
876,85	1175,53
877,03	1107,95
877,20	1165,29
877,38	1175,53
877,56	1161,20
877,73	1153,01
877,91	1122,29
878,09	1075,18
878,26	1058,80
878,44	1134,57
878,62	1230,83
878,79	1093,62
878,97	1114,10
879,15	1134,57
879,32	1132,53
879,50	1066,99
879,68	1107,95
879,85	1191,92
880,03	1124,33
880,21	1216,49
880,38	1161,20
880,56	1150,96
880,74	1175,53
880,91	1175,53
881,09	1089,52
881,27	1142,77
881,44	1165,29
881,62	1093,62
881,79	1126,38
881,97	1179,63
882,15	1191,92
882,32	1128,43
882,50	1142,77
882,68	1210,35
882,85	1173,49
883,03	1136,62
883,21	1163,25
883,38	1204,21
883,56	1112,05
883,73	1155,05
883,91	1181,68
884,09	1226,73
884,26	1200,11
884,44	1075,18
884,61	1169,39
884,79	1228,78
884,97	1177,58
885,14	1216,49
885,32	1122,29
885,49	1204,21
885,67	1181,68
885,85	1079,28
886,02	1212,40
886,20	1167,34
886,37	1159,15
886,55	1144,81
886,73	1167,34
886,90	1163,25
887,08	1191,92
887,25	1179,63
887,43	1128,43
887,60	1128,43
887,78	1239,02
887,96	1167,34
888,13	1157,10
888,31	1163,25
888,48	1251,31
888,66	1167,34
888,83	1132,53
889,01	1146,86
889,19	1163,25
889,36	1142,77
889,54	1126,38
889,71	1198,06
889,89	1140,72
890,06	1093,62
890,24	1114,10
890,41	1200,11
890,59	1118,19
890,77	1134,57
890,94	1083,38
891,12	1142,77
891,29	1126,38
891,47	1132,53
891,64	1193,97
891,82	1138,67
891,99	1142,77
892,17	1107,95
892,34	1173,49
892,52	1132,53
892,69	1204,21
892,87	1206,25
893,04	1130,48
893,22	1165,29
893,40	1146,86
893,57	1101,81
893,75	1232,88
893,92	1062,90
894,10	1142,77
894,27	1171,44
894,45	1122,29
894,62	1122,29
894,80	1236,97
894,97	1118,19
895,15	1122,29
895,32	1183,73
895,50	1200,11
895,67	1202,16
895,85	1146,86
896,02	1175,53
896,20	1236,97
896,37	1134,57
896,55	1122,29
896,72	1142,77
896,89	1130,48
897,07	1208,30
897,24	1253,36
897,42	1228,78
897,59	1128,43
897,77	1191,92
897,94	1099,76
898,12	1155,05
898,29	1206,25
898,47	1136,62
898,64	1175,53
898,82	1171,44
898,99	1132,53
899,17	1183,73
899,34	1175,53
899,52	1196,01
899,69	1200,11
899,86	1150,96
900,04	1185,77
900,21	1105,90
900,39	1138,67
900,56	1187,82
900,74	1191,92
900,91	1136,62
901,09	1189,87
901,26	1161,20
901,43	1099,76
901,61	1167,34
901,78	1226,73
901,96	1167,34
902,13	1189,87
902,31	1230,83
902,48	1120,24
902,65	1193,97
902,83	1159,15
903,00	1126,38
903,18	1204,21
903,35	1210,35
903,53	1116,14
903,70	1091,57
903,87	1189,87
904,05	1144,81
904,22	1146,86
904,40	1169,39
904,57	1173,49
904,74	1185,77
904,92	1255,40
905,09	1110,00
905,27	1196,01
905,44	1212,40
905,61	1157,10
905,79	1257,45
905,96	1179,63
906,13	1099,76
906,31	1220,59
906,48	1155,05
906,66	1132,53
906,83	1171,44
907,00	1153,01
907,18	1155,05
907,35	1187,82
907,53	1101,81
907,70	1202,16
907,87	1181,68
908,05	1099,76
908,22	1177,58
908,39	1144,81
908,57	1116,14
908,74	1232,88
908,91	1165,29
909,09	1171,44
909,26	1239,02
909,44	1116,14
909,61	1132,53
909,78	1173,49
909,96	1179,63
910,13	1130,48
910,30	1193,97
910,48	1171,44
910,65	1183,73
910,82	1130,48
911,00	1138,67
911,17	1116,14
911,34	1144,81
911,52	1155,05
911,69	1150,96
911,86	1163,25
912,04	1212,40
912,21	1140,72
912,38	1191,92
912,56	1107,95
912,73	1189,87
912,90	1159,15
913,08	1095,66
913,25	1220,59
913,42	1140,72
913,59	1130,48
913,77	1183,73
913,94	1148,91
914,11	1173,49
914,29	1202,16
914,46	1118,19
914,63	1171,44
914,81	1163,25
914,98	1097,71
915,15	1146,86
915,32	1118,19
915,50	1173,49
915,67	1163,25
915,84	1159,15
916,02	1212,40
916,19	1153,01
916,36	1196,01
916,53	1232,88
916,71	1146,86
916,88	1136,62
917,05	1198,06
917,23	1167,34
917,40	1130,48
917,57	1132,53
917,74	1138,67
917,92	1073,14
918,09	1144,81
918,26	1105,90
918,43	1161,20
918,61	1136,62
918,78	1134,57
918,95	1208,30
919,12	1122,29
919,30	1146,86
919,47	1273,84
919,64	1247,21
919,81	1228,78
919,99	1165,29
920,16	1179,63
920,33	1120,24
920,50	1167,34
920,68	1148,91
920,85	1128,43
921,02	1050,61
921,19	1140,72
921,36	1161,20
921,54	1140,72
921,71	1241,07
921,88	1204,21
922,05	1202,16
922,23	1200,11
922,40	1183,73
922,57	1099,76
922,74	1165,29
922,91	1136,62
923,09	1099,76
923,26	1220,59
923,43	1191,92
923,60	1177,58
923,77	1146,86
923,95	1142,77
924,12	1069,04
924,29	1116,14
924,46	1150,96
924,63	1126,38
924,81	1187,82
924,98	1171,44
925,15	1161,20
925,32	1183,73
925,49	1253,36
925,67	1126,38
925,84	1183,73
926,01	1120,24
926,18	1159,15
926,35	1120,24
926,52	1198,06
926,70	1138,67
926,87	1191,92
927,04	1187,82
927,21	1107,95
927,38	1183,73
927,55	1093,62
927,73	1193,97
927,90	1171,44
928,07	1167,34
928,24	1189,87
928,41	1155,05
928,58	1165,29
928,76	1189,87
928,93	1171,44
929,10	1196,01
929,27	1103,86
929,44	1146,86
929,61	1128,43
929,78	1177,58
929,96	1216,49
930,13	1132,53
930,30	1146,86
930,47	1107,95
930,64	1130,48
930,81	1097,71
930,98	1056,75
931,15	1189,87
931,33	1185,77
931,50	1118,19
931,67	1150,96
931,84	1175,53
932,01	1138,67
932,18	1130,48
932,35	1114,10
932,52	1112,05
932,69	1161,20
932,87	1189,87
933,04	1155,05
933,21	1175,53
933,38	1132,53
933,55	1218,54
933,72	1130,48
933,89	1175,53
934,06	1173,49
934,23	1224,69
934,40	1136,62
934,58	1095,66
934,75	1069,04
934,92	1173,49
935,09	1142,77
935,26	1181,68
935,43	1177,58
935,60	1169,39
935,77	1118,19
935,94	1120,24
936,11	1128,43
936,28	1142,77
936,45	1198,06
936,62	1148,91
936,79	1163,25
936,97	1167,34
937,14	1198,06
937,31	1165,29
937,48	1177,58
937,65	1208,30
937,82	1216,49
937,99	1179,63
938,16	1103,86
938,33	1157,10
938,50	1196,01
938,67	1187,82
938,84	1161,20
939,01	1175,53
939,18	1136,62
939,35	1228,78
939,52	1148,91
939,69	1110,00
939,86	1189,87
940,03	1110,00
940,20	1132,53
940,37	1118,19
940,54	1181,68
940,71	1187,82
940,88	1150,96
941,05	1120,24
941,22	1159,15
941,39	1103,86
941,56	1159,15
941,73	1150,96
941,91	1134,57
942,08	1099,76
942,25	1202,16
942,42	1153,01
942,59	1163,25
942,76	1087,47
942,93	1234,93
943,09	1122,29
943,26	1091,57
943,43	1155,05
943,60	1224,69
943,77	1052,66
943,94	1138,67
944,11	1181,68
944,28	1253,36
944,45	1110,00
944,62	1099,76
944,79	1232,88
944,96	1200,11
945,13	1140,72
945,30	1110,00
945,47	1155,05
945,64	1087,47
945,81	1155,05
945,98	1110,00
946,15	1171,44
946,32	1167,34
946,49	1163,25
946,66	1128,43
946,83	1255,40
947,00	1179,63
947,17	1175,53
947,34	1175,53
947,51	1126,38
947,68	1153,01
947,85	1200,11
948,02	1124,33
948,18	1153,01
948,35	1150,96
948,52	1191,92
948,69	1169,39
948,86	1159,15
949,03	1060,85
949,20	1183,73
949,37	1150,96
949,54	1185,77
949,71	1122,29
949,88	1101,81
950,05	1185,77
950,22	1107,95
950,38	1142,77
950,55	1155,05
950,72	1153,01
950,89	1138,67
951,06	1179,63
951,23	1212,40
951,40	1157,10
951,57	1126,38
951,74	1226,73
951,91	1208,30
952,08	1116,14
952,24	1144,81
952,41	1130,48
952,58	1122,29
952,75	1048,56
952,92	1171,44
953,09	1171,44
953,26	1159,15
953,43	1138,67
953,59	1132,53
953,76	1083,38
953,93	1118,19
954,10	1122,29
954,27	1122,29
954,44	1189,87
954,61	1189,87
954,78	1161,20
954,94	1146,86
955,11	1159,15
955,28	1236,97
955,45	1126,38
955,62	1128,43
955,79	1134,57
955,96	1165,29
956,12	1157,10
956,29	1130,48
956,46	1212,40
956,63	1134,57
956,80	1122,29
956,97	1185,77
957,13	1150,96
957,30	1159,15
957,47	1134,57
957,64	1146,86
957,81	1153,01
957,98	1099,76
958,14	1224,69
958,31	1163,25
958,48	1138,67
958,65	1130,48
958,82	1148,91
958,99	1232,88
959,15	1239,02
959,32	1097,71
959,49	1126,38
959,66	1142,77
959,83	1146,86
959,99	1128,43
960,16	1208,30
960,33	1306,60
960,50	1232,88
960,67	1181,68
960,83	1169,39
961,00	1130,48
961,17	1134,57
961,34	1148,91
961,51	1112,05
961,67	1218,54
961,84	1243,12
962,01	1216,49
962,18	1163,25
962,35	1179,63
962,51	1157,10
962,68	1103,86
962,85	1091,57
963,02	1148,91
963,18	1138,67
963,35	1273,84
963,52	1198,06
963,69	1179,63
963,86	1196,01
964,02	1169,39
964,19	1093,62
964,36	1212,40
964,53	1159,15
964,69	1214,45
964,86	1181,68
965,03	1226,73
965,20	1150,96
965,36	1177,58
965,53	1179,63
965,70	1169,39
965,87	1107,95
966,03	1181,68
966,20	1167,34
966,37	1081,33
966,53	1206,25
966,70	1257,45
966,87	1148,91
967,04	1196,01
967,20	1128,43
967,37	1161,20
967,54	1148,91
967,71	1220,59
967,87	1110,00
968,04	1136,62
968,21	1171,44
968,37	1130,48
968,54	1091,57
968,71	1183,73
968,88	1202,16
969,04	1208,30
969,21	1208,30
969,38	1218,54
969,54	1126,38
969,71	1183,73
969,88	1142,77
970,04	1220,59
970,21	1228,78
970,38	1171,44
970,55	1165,29
970,71	1155,05
970,88	1079,28
971,05	1126,38
971,21	1118,19
971,38	1171,44
971,55	1200,11
971,71	1116,14
971,88	1112,05
972,05	1150,96
972,21	1134,57
972,38	1179,63
972,55	1110,00
972,71	1179,63
972,88	1120,24
973,05	1103,86
973,21	1159,15
973,38	1165,29
973,55	1161,20
973,71	1251,31
973,88	1091,57
974,05	1193,97
974,21	1169,39
974,38	1210,35
974,54	1136,62
974,71	1247,21
974,88	1150,96
975,04	1243,12
975,21	1142,77
975,38	1247,21
975,54	1060,85
975,71	1093,62
975,88	1130,48
976,04	1142,77
976,21	1173,49
976,37	1167,34
976,54	1224,69
976,71	1163,25
976,87	1175,53
977,04	1187,82
977,20	1224,69
977,37	1140,72
977,54	1130,48
977,70	1171,44
977,87	1183,73
978,03	1165,29
978,20	1122,29
978,37	1107,95
978,53	1083,38
978,70	1159,15
978,86	1187,82
979,03	1165,29
979,20	1079,28
979,36	1163,25
979,53	1193,97
979,69	1236,97
979,86	1173,49
980,03	1118,19
980,19	1208,30
980,36	1163,25
980,52	1263,60
980,69	1146,86
980,85	1122,29
981,02	1060,85
981,19	1165,29
981,35	1212,40
981,52	1075,18
981,68	1126,38
981,85	1146,86
982,01	1198,06
982,18	1171,44
982,34	1157,10
982,51	1222,64
982,68	1159,15
982,84	1058,80
983,01	1212,40
983,17	1191,92
983,34	1130,48
983,50	1150,96
983,67	1163,25
983,83	1214,45
984,00	1091,57
984,16	1142,77
984,33	1122,29
984,49	1191,92
984,66	1191,92
984,83	1107,95
984,99	1114,10
985,16	1091,57
985,32	1112,05
985,49	1163,25
985,65	1189,87
985,82	1161,20
985,98	1097,71
986,15	1128,43
986,31	1183,73
986,48	1107,95
986,64	1169,39
986,81	1122,29
986,97	1103,86
987,14	1171,44
987,30	1179,63
987,47	1146,86
987,63	1171,44
987,80	1220,59
987,96	1173,49
988,13	1193,97
988,29	1163,25
988,46	1159,15
988,62	1187,82
988,79	1200,11
988,95	1122,29
989,11	1136,62
989,28	1150,96
989,44	1130,48
989,61	1183,73
989,77	1230,83
989,94	1191,92
990,10	1175,53
990,27	1163,25
990,43	1163,25
990,60	1241,07
990,76	1216,49
990,93	1099,76
991,09	1095,66
991,25	1189,87
991,42	1134,57
991,58	1114,10
991,75	1173,49
991,91	1155,05
992,08	1097,71
992,24	1144,81
992,41	1124,33
992,57	1220,59
992,73	1148,91
992,90	1183,73
993,06	1140,72
993,23	1181,68
993,39	1130,48
993,56	1079,28
993,72	1218,54
993,88	1208,30
994,05	1222,64
994,21	1234,93
994,38	1161,20
994,54	1155,05
994,70	1187,82
994,87	1193,97
995,03	1230,83
995,20	1193,97
995,36	1146,86
995,52	1226,73
995,69	1171,44
995,85	1185,77
996,02	1171,44
996,18	1163,25
996,34	1079,28
996,51	1157,10
996,67	1126,38
996,84	1169,39
997,00	1150,96
997,16	1118,19
997,33	1107,95
997,49	1169,39
997,65	1095,66
997,82	1163,25
997,98	1161,20
998,15	1173,49
998,31	1142,77
998,47	1144,81
998,64	1140,72
998,80	1124,33
998,96	1234,93
999,13	1228,78
999,29	1126,38
999,45	1204,21
999,62	1214,45
999,78	1179,63
999,94	1167,34
1000,11	1155,05
1000,27	1181,68
1000,44	1210,35
1000,60	1208,30
1000,76	1208,30
1000,93	1122,29
1001,09	1146,86
1001,25	1163,25
1001,42	1142,77
1001,58	1212,40
1001,74	1179,63
1001,90	1212,40
1002,07	1142,77
1002,23	1183,73
1002,39	1130,48
1002,56	1181,68
1002,72	1138,67
1002,88	1148,91
1003,05	1181,68
1003,21	1187,82
1003,37	1157,10
1003,54	1159,15
1003,70	1198,06
1003,86	1110,00
1004,03	1157,10
1004,19	1173,49
1004,35	1153,01
1004,51	1181,68
1004,68	1163,25
1004,84	1112,05
1005,00	1148,91
1005,17	1165,29
1005,33	1105,90
1005,49	1132,53
1005,65	1212,40
1005,82	1118,19
1005,98	1255,40
1006,14	1136,62
1006,30	1202,16
1006,47	1146,86
1006,63	1163,25
1006,79	1220,59
1006,96	1126,38
1007,12	1179,63
1007,28	1196,01
1007,44	1128,43
1007,61	1216,49
1007,77	1187,82
1007,93	1181,68
1008,09	1126,38
1008,26	1181,68
1008,42	1161,20
1008,58	1122,29
1008,74	1179,63
1008,91	1163,25
1009,07	1112,05
1009,23	1095,66
1009,39	1187,82
1009,55	1171,44
1009,72	1249,26
1009,88	1097,71
1010,04	1140,72
1010,20	1202,16
1010,37	1257,45
1010,53	1138,67
1010,69	1130,48
1010,85	1157,10
1011,01	1095,66
1011,18	1175,53
1011,34	1245,16
1011,50	1220,59
1011,66	1165,29
1011,82	1116,14
1011,99	1132,53
1012,15	1171,44
1012,31	1202,16
1012,47	1214,45
1012,63	1159,15
1012,80	1140,72
1012,96	1167,34
1013,12	1130,48
1013,28	1181,68
1013,44	1193,97
1013,61	1124,33
1013,77	1189,87
1013,93	1011,70
1014,09	1216,49
1014,25	1140,72
1014,41	1175,53
1014,58	1163,25
1014,74	1138,67
1014,90	1130,48
1015,06	1286,12
1015,22	1177,58
1015,38	1187,82
1015,55	1314,80
1015,71	1228,78
1015,87	1175,53
1016,03	1200,11
1016,19	1157,10
1016,35	1239,02
1016,52	1277,93
1016,68	1236,97
1016,84	1236,97
1017,00	1245,16
1017,16	1210,35
1017,32	1243,12
1017,48	1191,92
1017,65	1239,02
1017,81	1177,58
1017,97	1329,13
1018,13	1220,59
1018,29	1265,64
1018,45	1255,40
1018,61	1177,58
1018,77	1173,49
1018,93	1236,97
1019,10	1261,55
1019,26	1259,50
1019,42	1155,05
1019,58	1155,05
1019,74	1273,84
1019,90	1191,92
1020,06	1157,10
1020,22	1179,63
1020,38	1206,25
1020,55	1177,58
1020,71	1138,67
1020,87	1161,20
1021,03	1187,82
1021,19	1116,14
1021,35	1153,01
1021,51	1253,36
1021,67	1208,30
1021,83	1193,97
1021,99	1198,06
1022,15	1167,34
1022,31	1200,11
1022,48	1204,21
1022,64	1228,78
1022,80	1183,73
1022,96	1271,79
1023,12	1183,73
1023,28	1202,16
1023,44	1202,16
1023,60	1200,11
1023,76	1142,77
1023,92	1060,85
1024,08	1155,05
1024,24	1218,54
1024,40	1232,88
1024,56	1091,57
1024,72	1212,40
1024,88	1239,02
1025,04	1163,25
1025,21	1140,72
1025,37	1179,63
1025,53	1159,15
1025,69	1175,53
1025,85	1155,05
1026,01	1116,14
1026,17	1253,36
1026,33	1179,63
1026,49	1185,77
1026,65	1163,25
1026,81	1120,24
1026,97	1114,10
1027,13	1161,20
1027,29	1187,82
1027,45	1198,06
1027,61	1179,63
1027,77	1130,48
1027,93	1089,52
1028,09	1179,63
1028,25	1218,54
1028,41	1167,34
1028,57	1177,58
1028,73	1173,49
1028,89	1286,12
1029,05	1087,47
1029,21	1218,54
1029,37	1120,24
1029,53	1165,29
1029,69	1206,25
1029,85	1163,25
1030,01	1114,10
1030,17	1150,96
1030,33	1169,39
1030,49	1159,15
1030,65	1099,76
1030,81	1171,44
1030,97	1157,10
1031,13	1105,90
1031,29	1177,58
1031,45	1232,88
1031,60	1210,35
1031,76	1130,48
1031,92	1163,25
1032,08	1138,67
1032,24	1159,15
1032,40	1267,69
1032,56	1138,67
1032,72	1079,28
1032,88	1136,62
1033,04	1163,25
1033,20	1198,06
1033,36	1196,01
1033,52	1179,63
1033,68	1140,72
1033,84	1112,05
1034,00	1097,71
1034,16	1140,72
1034,32	1208,30
1034,47	1128,43
1034,63	1128,43
1034,79	1226,73
1034,95	1181,68
1035,11	1224,69
1035,27	1101,81
1035,43	1134,57
1035,59	1130,48
1035,75	1099,76
1035,91	1204,21
1036,07	1146,86
1036,22	1175,53
1036,38	1161,20
1036,54	1138,67
1036,70	1134,57
1036,86	1134,57
1037,02	1187,82
1037,18	1189,87
1037,34	1167,34
1037,50	1196,01
1037,65	1286,12
>>>>>End Processed Spectral Data<<<<<
